SpectraSuite Data File
++++++++++++++++++++++++++++++++++++
Date: Wed Nov 27 16:55:43 EET 2013
User: OO Maya
Dark Spectrum Present: No
Reference Spectrum Present: No
Number of Sampled Component Spectra: 1
Spectrometers: MAYP11278
Integration Time (usec): 500000 (MAYP11278)
Spectra Averaged: 5 (MAYP11278)
Boxcar Smoothing: 0 (MAYP11278)
Correct for Electrical Dark: No (MAYP11278)
Strobe/Lamp Enabled: No (MAYP11278)
Correct for Detector Non-linearity: No (MAYP11278)
Correct for Stray Light: No (MAYP11278)
Number of Pixels in Processed Spectrum: 2068
>>>>>Begin Processed Spectral Data<<<<<
188,05	2292,20
188,53	2212,20
189,01	2182,20
189,49	2184,40
189,96	2727,00
190,44	2768,40
190,92	2769,20
191,40	2782,60
191,88	2820,00
192,36	2774,60
192,83	2756,40
193,31	2736,60
193,79	2766,20
194,27	2757,00
194,75	2789,20
195,23	2763,20
195,70	2804,80
196,18	2753,40
196,66	2767,20
197,14	2881,20
197,62	2767,20
198,09	2746,60
198,57	2762,40
199,05	2738,40
199,53	2781,40
200,01	2801,60
200,48	2758,00
200,96	2768,80
201,44	2807,60
201,92	2806,20
202,39	2813,80
202,87	2745,20
203,35	2786,40
203,83	2741,40
204,31	2794,00
204,78	2849,00
205,26	2765,40
205,74	2753,20
206,22	2840,60
206,69	2776,40
207,17	2792,40
207,65	2889,20
208,13	2787,00
208,60	2800,80
209,08	2776,20
209,56	2804,40
210,04	2807,60
210,51	2771,80
210,99	2783,80
211,47	2807,20
211,94	2779,40
212,42	2765,80
212,90	2869,00
213,38	2816,40
213,85	2760,80
214,33	2861,20
214,81	2803,40
215,29	2855,00
215,76	2807,40
216,24	2811,00
216,72	2821,20
217,19	2803,00
217,67	2753,20
218,15	2783,60
218,62	2847,20
219,10	2734,60
219,58	2766,60
220,05	2774,20
220,53	2790,80
221,01	2959,40
221,49	2766,20
221,96	2825,00
222,44	2771,60
222,92	2833,20
223,39	2775,00
223,87	2830,20
224,35	2791,60
224,82	2786,40
225,30	2751,20
225,78	2791,80
226,25	2763,60
226,73	2786,60
227,21	2840,40
227,68	2790,00
228,16	2818,80
228,63	2831,00
229,11	2830,20
229,59	2791,80
230,06	2791,20
230,54	2777,40
231,02	2819,60
231,49	2857,40
231,97	2804,60
232,45	2809,20
232,92	2763,60
233,40	2794,00
233,87	2804,40
234,35	2939,40
234,83	2808,00
235,30	2769,40
235,78	2776,80
236,25	2755,40
236,73	2831,00
237,21	2872,20
237,68	2787,60
238,16	2813,60
238,63	2819,40
239,11	2805,60
239,59	2803,00
240,06	2762,60
240,54	2824,00
241,01	2849,80
241,49	2791,40
241,96	2785,80
242,44	2831,80
242,92	2845,40
243,39	2758,60
243,87	2786,80
244,34	2833,40
244,82	2871,20
245,29	2798,00
245,77	2859,20
246,24	2847,80
246,72	2780,60
247,20	2804,00
247,67	2788,80
248,15	2806,20
248,62	2817,80
249,10	2744,60
249,57	2804,40
250,05	2837,00
250,52	2830,80
251,00	2857,60
251,47	2829,20
251,95	2887,20
252,42	2861,00
252,90	2779,20
253,37	2844,20
253,85	2821,60
254,32	2802,20
254,80	2819,20
255,27	2820,00
255,75	2841,60
256,22	2789,80
256,70	2830,80
257,17	2828,40
257,65	2842,20
258,12	2953,20
258,60	2812,60
259,07	2811,20
259,55	2819,00
260,02	2856,80
260,50	2897,80
260,97	2801,60
261,45	2804,60
261,92	2871,60
262,40	2780,20
262,87	2830,40
263,35	2816,80
263,82	2773,60
264,30	2852,60
264,77	2861,20
265,25	2815,60
265,72	2815,20
266,19	2836,00
266,67	2858,60
267,14	2813,80
267,62	2819,60
268,09	2840,40
268,57	2854,40
269,04	2764,40
269,51	2792,20
269,99	2801,60
270,46	2850,40
270,94	2873,60
271,41	2822,20
271,89	2819,60
272,36	2786,80
272,83	2793,20
273,31	2740,20
273,78	2827,60
274,26	2980,60
274,73	2854,40
275,20	2865,20
275,68	2812,40
276,15	2817,80
276,63	2846,00
277,10	2855,40
277,57	2790,60
278,05	2815,60
278,52	2776,60
279,00	3032,20
279,47	2808,20
279,94	2806,60
280,42	2994,20
280,89	2869,60
281,36	2962,40
281,84	2795,60
282,31	2885,80
282,78	2817,40
283,26	2817,40
283,73	2838,40
284,21	2796,00
284,68	2778,00
285,15	2848,80
285,63	2830,20
286,10	2852,00
286,57	2842,40
287,05	2784,60
287,52	2836,60
287,99	2884,60
288,47	2822,60
288,94	2847,00
289,41	2757,20
289,89	2883,60
290,36	2786,60
290,83	2838,80
291,30	2803,20
291,78	2853,80
292,25	2926,20
292,72	2798,40
293,20	2878,40
293,67	2805,40
294,14	2852,60
294,62	2836,20
295,09	2799,60
295,56	2825,60
296,03	2838,40
296,51	2902,80
296,98	2888,20
297,45	2839,00
297,93	2844,40
298,40	2836,40
298,87	2799,60
299,34	2877,60
299,82	2822,60
300,29	2849,00
300,76	2800,40
301,23	2864,80
301,71	2859,80
302,18	2850,40
302,65	2789,00
303,12	2852,60
303,60	2863,60
304,07	2794,80
304,54	2800,20
305,01	2785,20
305,49	2829,00
305,96	2841,20
306,43	2824,60
306,90	2835,00
307,38	2813,00
307,85	2804,40
308,32	2828,00
308,79	2799,40
309,27	2860,80
309,74	2848,20
310,21	2827,20
310,68	2830,60
311,15	2848,60
311,63	2793,40
312,10	2869,80
312,57	2818,00
313,04	2897,80
313,51	2793,40
313,99	2815,60
314,46	2819,00
314,93	2784,00
315,40	2789,20
315,87	2856,80
316,34	2842,60
316,82	2836,20
317,29	2844,00
317,76	2821,00
318,23	2942,00
318,70	2812,40
319,17	2822,40
319,65	2763,40
320,12	2838,80
320,59	2884,60
321,06	2840,00
321,53	2816,60
322,00	2751,40
322,48	2773,80
322,95	2895,80
323,42	2803,00
323,89	2903,40
324,36	2770,40
324,83	2817,60
325,30	2806,00
325,78	2804,60
326,25	2795,00
326,72	2802,60
327,19	2839,20
327,66	2831,40
328,13	2836,80
328,60	2818,40
329,07	2803,00
329,54	2797,40
330,02	2791,40
330,49	2794,60
330,96	2859,00
331,43	2834,00
331,90	2892,80
332,37	2780,20
332,84	2899,80
333,31	2844,80
333,78	2846,00
334,25	2872,20
334,72	2828,60
335,20	2831,20
335,67	2985,00
336,14	2773,20
336,61	2818,40
337,08	2797,80
337,55	2833,20
338,02	2792,60
338,49	2798,00
338,96	2884,40
339,43	2857,60
339,90	2790,80
340,37	2797,60
340,84	2780,80
341,31	2841,80
341,78	2863,80
342,25	2799,60
342,72	2815,60
343,19	2855,20
343,67	2821,80
344,14	2797,80
344,61	2822,40
345,08	2788,60
345,55	2803,00
346,02	2847,00
346,49	2808,40
346,96	2802,20
347,43	2891,00
347,90	2801,40
348,37	2865,60
348,84	2829,00
349,31	2763,00
349,78	2831,20
350,25	2847,00
350,72	2809,80
351,19	2782,40
351,66	2825,60
352,13	2883,80
352,60	2839,80
353,07	2804,60
353,54	2823,60
354,01	2847,80
354,48	2830,80
354,94	2844,80
355,41	2829,40
355,88	2881,80
356,35	2786,60
356,82	2895,00
357,29	2778,00
357,76	2911,80
358,23	2847,60
358,70	2775,60
359,17	2777,60
359,64	2796,20
360,11	2811,00
360,58	2844,20
361,05	2875,40
361,52	2805,00
361,99	2812,20
362,46	2809,80
362,93	2807,20
363,39	2812,60
363,86	2909,60
364,33	2841,20
364,80	2792,80
365,27	2847,40
365,74	2805,00
366,21	2772,40
366,68	2929,80
367,15	2819,20
367,62	3698,00
368,09	2756,40
368,55	2766,60
369,02	2844,20
369,49	2773,00
369,96	2851,20
370,43	2824,80
370,90	2814,80
371,37	2803,80
371,84	2837,00
372,31	2793,60
372,77	2755,60
373,24	2822,20
373,71	2828,60
374,18	2773,00
374,65	2784,60
375,12	2832,80
375,59	2762,00
376,05	2878,80
376,52	2789,00
376,99	2780,80
377,46	2782,60
377,93	2829,60
378,40	2821,40
378,86	2818,40
379,33	2820,80
379,80	2812,80
380,27	2835,40
380,74	2887,00
381,21	2823,20
381,67	2894,00
382,14	2881,60
382,61	2767,20
383,08	2832,40
383,55	2818,80
384,02	2864,20
384,48	2833,60
384,95	3051,40
385,42	2826,20
385,89	2807,40
386,36	2816,00
386,82	2905,80
387,29	2786,20
387,76	2785,80
388,23	2878,20
388,69	2843,20
389,16	2885,80
389,63	2811,00
390,10	2870,00
390,57	2849,40
391,03	2862,80
391,50	2860,20
391,97	2851,80
392,44	2872,20
392,90	2847,40
393,37	2861,60
393,84	2967,20
394,31	2884,80
394,77	2928,60
395,24	2877,40
395,71	2923,40
396,18	3127,20
396,64	2878,80
397,11	2955,60
397,58	2995,20
398,05	2933,00
398,51	2974,80
398,98	2966,20
399,45	2970,00
399,92	3104,20
400,38	3016,00
400,85	3079,80
401,32	3112,40
401,78	3169,00
402,25	3189,40
402,72	3230,40
403,18	3226,80
403,65	3386,00
404,12	3360,60
404,59	3498,20
405,05	3551,60
405,52	3610,60
405,99	3593,40
406,45	3771,80
406,92	3834,00
407,39	4031,80
407,85	4079,00
408,32	4174,60
408,79	4329,20
409,25	4421,40
409,72	4642,20
410,19	4696,20
410,65	4954,20
411,12	5071,00
411,59	5364,80
412,05	5570,00
412,52	5749,20
412,99	6155,00
413,45	6434,20
413,92	6814,20
414,39	7187,20
414,85	7641,80
415,32	7972,20
415,78	8473,00
416,25	8805,20
416,72	9266,60
417,18	9773,20
417,65	10213,20
418,12	10750,80
418,58	11327,60
419,05	12020,40
419,51	12767,40
419,98	13538,40
420,45	14536,40
420,91	15379,00
421,38	16419,00
421,84	17486,20
422,31	18494,80
422,78	19617,80
423,24	20656,80
423,71	21656,60
424,17	22767,80
424,64	23751,60
425,11	24897,00
425,57	26078,80
426,04	27400,20
426,50	28761,60
426,97	30390,20
427,43	32156,40
427,90	33941,80
428,37	35766,00
428,83	37884,00
429,30	39649,00
429,76	41510,60
430,23	43432,40
430,69	45060,80
431,16	46235,60
431,62	47581,00
432,09	48643,60
432,55	49654,20
433,02	50608,60
433,48	51396,60
433,95	52484,40
434,42	53378,60
434,88	54346,00
435,35	55217,60
435,81	56197,00
436,28	56850,00
436,74	57330,60
437,21	57594,40
437,67	57638,20
438,14	57225,40
438,60	56400,60
439,07	55546,20
439,53	54398,60
440,00	52752,80
440,46	50977,80
440,93	49359,80
441,39	47260,80
441,86	45702,00
442,32	44064,80
442,79	42371,40
443,25	40844,00
443,72	39545,20
444,18	38179,40
444,64	37122,00
445,11	35922,40
445,57	34698,60
446,04	33529,60
446,50	32286,20
446,97	31119,60
447,43	29886,60
447,90	28649,60
448,36	27463,80
448,83	26334,20
449,29	25261,20
449,75	24186,40
450,22	23162,00
450,68	22258,60
451,15	21436,00
451,61	20708,80
452,08	20041,40
452,54	19353,00
453,00	18846,80
453,47	18237,60
453,93	17767,40
454,40	17255,80
454,86	16644,60
455,32	16114,00
455,79	15618,60
456,25	15063,00
456,72	14418,00
457,18	13924,00
457,64	13276,00
458,11	12752,20
458,57	12170,00
459,04	11669,80
459,50	11148,80
459,96	10731,80
460,43	10249,40
460,89	9877,00
461,36	9631,20
461,82	9249,20
462,28	8945,80
462,75	8620,60
463,21	8527,40
463,67	8197,80
464,14	8007,60
464,60	7829,40
465,06	7575,80
465,53	7388,80
465,99	7245,80
466,45	7021,40
466,92	6880,80
467,38	6655,60
467,84	6490,40
468,31	6297,80
468,77	6139,20
469,23	5966,60
469,70	5771,20
470,16	5653,20
470,62	5549,40
471,09	5380,80
471,55	5241,80
472,01	5119,00
472,48	5040,20
472,94	4946,40
473,40	4913,60
473,87	4752,00
474,33	4678,00
474,79	4634,80
475,25	4517,80
475,72	4529,40
476,18	4423,00
476,64	4384,80
477,11	4293,60
477,57	4210,60
478,03	4205,80
478,49	4096,40
478,96	4061,60
479,42	3945,40
479,88	3982,60
480,35	3879,40
480,81	3818,60
481,27	3733,80
481,73	3709,20
482,20	3690,20
482,66	3593,00
483,12	3607,00
483,58	3529,20
484,05	3525,40
484,51	3577,40
484,97	3518,60
485,43	3451,00
485,89	3377,20
486,36	3428,20
486,82	3337,00
487,28	3405,60
487,74	3324,00
488,21	3298,80
488,67	3308,80
489,13	3306,60
489,59	3286,40
490,05	3322,40
490,52	3206,80
490,98	3236,60
491,44	3156,00
491,90	3165,00
492,36	3116,80
492,83	3194,80
493,29	3161,40
493,75	3118,40
494,21	3100,40
494,67	3089,40
495,14	3068,60
495,60	3054,40
496,06	3072,60
496,52	3052,20
496,98	3061,00
497,44	3137,40
497,91	3100,60
498,37	3025,40
498,83	3049,80
499,29	3018,60
499,75	3123,20
500,21	3013,40
500,67	2969,20
501,14	3007,00
501,60	2984,20
502,06	3017,00
502,52	2975,20
502,98	2979,60
503,44	2971,60
503,90	2984,00
504,37	2942,40
504,83	2974,40
505,29	2969,20
505,75	2912,20
506,21	2946,20
506,67	2980,80
507,13	2944,20
507,59	2948,40
508,05	2934,40
508,51	2894,80
508,98	2882,80
509,44	2872,60
509,90	2911,00
510,36	2913,80
510,82	2879,40
511,28	2962,00
511,74	2970,00
512,20	2885,40
512,66	2850,80
513,12	2877,80
513,58	2922,60
514,04	2820,40
514,51	2935,40
514,97	2968,60
515,43	2833,20
515,89	2887,00
516,35	2939,40
516,81	2926,40
517,27	3001,20
517,73	2913,40
518,19	2871,80
518,65	3051,40
519,11	2889,00
519,57	2846,00
520,03	2836,40
520,49	2841,20
520,95	2877,80
521,41	2894,60
521,87	2902,60
522,33	2862,40
522,79	2840,00
523,25	2947,40
523,71	2913,40
524,17	2860,60
524,63	2940,00
525,09	2896,20
525,55	2905,60
526,01	2908,80
526,47	2874,20
526,93	2856,40
527,39	2851,00
527,85	2838,00
528,31	2892,40
528,77	2890,60
529,23	2839,20
529,69	2821,20
530,15	2871,00
530,61	2882,40
531,07	2808,00
531,53	2898,60
531,99	2847,00
532,45	2851,60
532,91	2847,60
533,37	2870,40
533,83	2832,40
534,29	2794,00
534,75	2848,60
535,21	2821,60
535,67	2858,20
536,12	2818,20
536,58	2868,00
537,04	2810,00
537,50	2875,60
537,96	2841,40
538,42	2841,00
538,88	2921,60
539,34	2856,40
539,80	3092,80
540,26	2782,40
540,72	2925,40
541,18	2845,20
541,63	2791,80
542,09	2872,00
542,55	2843,40
543,01	2821,00
543,47	2960,00
543,93	2790,80
544,39	2932,80
544,85	2873,40
545,31	2826,60
545,76	2810,80
546,22	2886,00
546,68	2847,20
547,14	2851,00
547,60	2876,20
548,06	2835,80
548,52	2832,00
548,98	2818,40
549,43	2810,00
549,89	2916,80
550,35	2830,00
550,81	2790,80
551,27	2854,40
551,73	2825,40
552,19	2922,20
552,64	2836,60
553,10	2795,80
553,56	2845,60
554,02	2825,00
554,48	2803,40
554,93	2844,60
555,39	2839,20
555,85	2910,60
556,31	2852,20
556,77	2892,00
557,23	2784,80
557,68	2843,00
558,14	2921,80
558,60	2819,20
559,06	2822,40
559,52	2790,20
559,97	2799,80
560,43	2789,00
560,89	2824,40
561,35	2809,20
561,81	2825,40
562,26	2812,20
562,72	2807,60
563,18	2827,80
563,64	2868,60
564,09	2786,80
564,55	2838,00
565,01	2813,80
565,47	2819,00
565,92	2839,00
566,38	2875,00
566,84	2812,60
567,30	2793,00
567,75	2829,60
568,21	2873,60
568,67	2806,60
569,13	2816,20
569,58	2856,20
570,04	2837,00
570,50	2825,80
570,96	2857,00
571,41	2851,00
571,87	2825,40
572,33	2833,00
572,78	2862,80
573,24	2802,80
573,70	2813,60
574,16	2830,40
574,61	2878,20
575,07	2858,00
575,53	2786,60
575,98	2830,20
576,44	2755,00
576,90	2871,60
577,36	2807,40
577,81	2808,40
578,27	2770,20
578,73	2873,80
579,18	2842,60
579,64	2791,60
580,10	2834,60
580,55	2842,80
581,01	2826,00
581,47	2813,00
581,92	2828,40
582,38	2827,40
582,84	2769,80
583,29	2825,60
583,75	2842,80
584,21	2809,60
584,66	2832,00
585,12	2804,20
585,57	2936,80
586,03	2811,60
586,49	2815,80
586,94	2818,80
587,40	2822,20
587,86	2856,40
588,31	2776,40
588,77	2851,60
589,22	2820,80
589,68	2786,40
590,14	2842,00
590,59	2844,80
591,05	2815,60
591,51	2770,00
591,96	2878,60
592,42	2803,40
592,87	2845,00
593,33	2815,20
593,78	2854,80
594,24	2825,40
594,70	2821,80
595,15	2879,60
595,61	2800,40
596,06	2784,80
596,52	2892,40
596,98	2861,20
597,43	2865,00
597,89	2826,40
598,34	2770,00
598,80	2824,20
599,25	2878,60
599,71	2799,80
600,16	2825,20
600,62	2874,00
601,08	2844,80
601,53	2846,80
601,99	2771,80
602,44	2950,20
602,90	2820,00
603,35	2818,20
603,81	2759,20
604,26	2752,80
604,72	2839,80
605,17	2814,40
605,63	2836,00
606,08	2821,40
606,54	2760,40
606,99	2834,40
607,45	2807,80
607,90	2822,20
608,36	2854,40
608,81	2822,40
609,27	2934,60
609,72	2863,00
610,18	2814,20
610,63	2787,80
611,09	2829,20
611,54	2775,00
612,00	2896,80
612,45	2845,40
612,91	2807,00
613,36	2973,20
613,82	2754,80
614,27	2774,00
614,73	2780,40
615,18	2775,80
615,64	2805,40
616,09	2824,80
616,54	2779,80
617,00	2819,60
617,45	2813,00
617,91	2856,80
618,36	2793,40
618,82	2785,60
619,27	2801,80
619,72	2846,00
620,18	2790,80
620,63	2845,00
621,09	2863,60
621,54	2824,00
622,00	2855,00
622,45	2878,00
622,90	2872,80
623,36	2791,80
623,81	2792,60
624,27	2864,80
624,72	2772,40
625,17	2798,60
625,63	2819,20
626,08	2782,80
626,54	2819,80
626,99	2828,40
627,44	2782,00
627,90	2837,80
628,35	2844,60
628,81	2757,80
629,26	2806,20
629,71	2825,80
630,17	2787,20
630,62	2836,80
631,07	2787,00
631,53	2851,20
631,98	2851,00
632,43	2874,20
632,89	2788,00
633,34	2799,80
633,79	2785,20
634,25	2795,80
634,70	2778,00
635,15	2799,00
635,61	2794,40
636,06	2768,00
636,51	2815,20
636,97	2806,20
637,42	2781,40
637,87	2853,20
638,33	2850,40
638,78	2793,00
639,23	2818,80
639,69	2778,20
640,14	2759,80
640,59	2826,40
641,05	2851,60
641,50	2770,80
641,95	2797,20
642,40	2798,40
642,86	2765,80
643,31	2789,60
643,76	2849,60
644,22	2781,60
644,67	2783,40
645,12	2794,80
645,57	2772,60
646,03	2798,80
646,48	2820,00
646,93	2817,80
647,38	2841,20
647,84	2813,20
648,29	2816,60
648,74	2763,80
649,19	2865,80
649,65	2836,80
650,10	3005,80
650,55	2769,80
651,00	2784,00
651,46	2777,40
651,91	2821,20
652,36	2785,80
652,81	2802,00
653,27	2790,60
653,72	2786,40
654,17	2822,80
654,62	2813,20
655,07	2797,60
655,53	2772,20
655,98	2844,40
656,43	2775,80
656,88	2813,20
657,33	2829,60
657,79	2834,80
658,24	2775,40
658,69	2806,00
659,14	2777,40
659,59	3013,00
660,05	2787,40
660,50	2852,60
660,95	2812,20
661,40	2778,80
661,85	2802,80
662,30	2783,20
662,76	2741,20
663,21	2834,60
663,66	2798,60
664,11	2784,20
664,56	2794,00
665,01	2780,40
665,47	2818,60
665,92	2761,60
666,37	2817,60
666,82	2822,60
667,27	2937,60
667,72	2865,00
668,17	2773,00
668,62	2829,80
669,08	2777,00
669,53	2912,80
669,98	2743,80
670,43	2777,20
670,88	2859,00
671,33	2818,40
671,78	2883,40
672,23	2916,80
672,69	2799,80
673,14	2806,60
673,59	2858,20
674,04	2963,20
674,49	2810,80
674,94	2816,20
675,39	2763,00
675,84	2768,00
676,29	2816,60
676,74	2792,40
677,19	2806,80
677,64	2807,60
678,10	2929,80
678,55	2779,20
679,00	2785,00
679,45	2822,00
679,90	2783,80
680,35	2800,20
680,80	2813,20
681,25	2736,00
681,70	2754,40
682,15	2794,00
682,60	2814,80
683,05	2832,40
683,50	2840,80
683,95	2829,40
684,40	2858,40
684,85	2822,80
685,30	2823,00
685,75	2827,60
686,20	2800,40
686,65	2778,20
687,10	2808,20
687,55	2782,20
688,00	2821,40
688,45	2802,20
688,90	2940,60
689,35	2842,00
689,80	2750,00
690,25	2809,00
690,70	2798,40
691,15	2759,80
691,60	2811,20
692,05	2754,60
692,50	2801,80
692,95	2785,40
693,40	2825,00
693,85	2831,00
694,30	2803,40
694,75	2824,00
695,20	3029,40
695,65	2818,00
696,10	2822,60
696,55	2901,60
697,00	2810,40
697,45	2791,20
697,90	2825,20
698,35	2779,00
698,80	2848,00
699,24	2835,40
699,69	2776,40
700,14	2802,80
700,59	2847,80
701,04	2840,60
701,49	3004,00
701,94	2762,00
702,39	2880,20
702,84	2783,20
703,29	2795,60
703,74	2830,00
704,19	2805,40
704,63	2796,00
705,08	2861,60
705,53	2839,00
705,98	2857,20
706,43	2764,00
706,88	2849,80
707,33	2820,80
707,78	2805,40
708,22	2825,80
708,67	2853,60
709,12	2825,00
709,57	2795,80
710,02	2796,60
710,47	2802,60
710,92	2782,20
711,37	2831,80
711,81	2817,40
712,26	2814,60
712,71	2779,80
713,16	2904,20
713,61	2811,20
714,06	2824,60
714,50	2879,20
714,95	2846,00
715,40	2808,60
715,85	2831,20
716,30	2789,80
716,75	2787,00
717,19	2763,60
717,64	2748,80
718,09	2853,20
718,54	2888,80
718,99	2774,00
719,43	2768,60
719,88	2810,80
720,33	2802,60
720,78	2788,00
721,23	2820,80
721,67	2782,80
722,12	2842,80
722,57	2809,00
723,02	2767,60
723,47	2745,00
723,91	2809,60
724,36	2745,20
724,81	2839,00
725,26	2763,00
725,70	2801,20
726,15	2811,00
726,60	2806,60
727,05	2895,20
727,49	2766,40
727,94	2864,40
728,39	2834,80
728,84	2798,40
729,28	2871,40
729,73	2778,00
730,18	2853,00
730,63	2756,80
731,07	2818,20
731,52	2831,80
731,97	2817,00
732,41	2811,20
732,86	2773,00
733,31	2826,20
733,76	2820,20
734,20	2766,20
734,65	2848,80
735,10	2833,00
735,54	2808,60
735,99	2953,40
736,44	2783,60
736,89	2813,80
737,33	2841,20
737,78	2823,00
738,23	2801,00
738,67	2790,20
739,12	2813,20
739,57	2752,80
740,01	2859,00
740,46	2831,40
740,91	2779,00
741,35	2820,00
741,80	2841,00
742,25	2798,00
742,69	2809,80
743,14	2761,00
743,59	2776,20
744,03	2803,60
744,48	2847,40
744,92	2853,60
745,37	2834,20
745,82	2836,80
746,26	2866,00
746,71	2734,60
747,16	2773,80
747,60	2766,00
748,05	2826,40
748,49	2792,20
748,94	2787,80
749,39	2817,00
749,83	2937,60
750,28	2810,00
750,73	2799,60
751,17	2751,00
751,62	2783,80
752,06	2785,00
752,51	2794,40
752,95	2895,20
753,40	2772,80
753,85	2795,80
754,29	2757,80
754,74	2788,60
755,18	2769,20
755,63	2790,80
756,07	2802,60
756,52	2850,20
756,97	2780,20
757,41	2840,80
757,86	2810,00
758,30	2791,20
758,75	2795,80
759,19	2792,20
759,64	2767,00
760,08	2790,00
760,53	2817,00
760,98	2799,00
761,42	2820,80
761,87	2863,40
762,31	2776,60
762,76	2745,80
763,20	2799,00
763,65	2828,60
764,09	2783,00
764,54	2757,20
764,98	2768,80
765,43	2801,80
765,87	2758,60
766,32	2755,60
766,76	2774,20
767,21	2779,40
767,65	2802,80
768,10	2803,40
768,54	2828,80
768,99	2780,00
769,43	2884,80
769,88	2757,80
770,32	2801,40
770,77	2753,60
771,21	2745,40
771,65	2812,20
772,10	2806,40
772,54	2796,00
772,99	2729,60
773,43	2782,20
773,88	2777,20
774,32	2715,00
774,77	2796,60
775,21	2758,60
775,65	2805,60
776,10	2790,80
776,54	2759,20
776,99	2768,80
777,43	2780,60
777,88	2814,40
778,32	2822,40
778,76	2780,80
779,21	2792,80
779,65	2931,20
780,10	2855,60
780,54	2800,40
780,99	2839,20
781,43	2817,40
781,87	2757,20
782,32	2801,00
782,76	2764,80
783,20	2779,00
783,65	2825,00
784,09	2822,40
784,54	2792,40
784,98	2772,60
785,42	2785,60
785,87	2753,00
786,31	2819,40
786,75	2844,60
787,20	2848,40
787,64	2751,60
788,09	2769,40
788,53	2790,80
788,97	2757,00
789,42	2787,40
789,86	2771,80
790,30	2792,60
790,75	2746,40
791,19	2765,40
791,63	2845,60
792,08	2768,60
792,52	2796,80
792,96	2758,00
793,41	2993,00
793,85	2833,20
794,29	2785,80
794,74	2805,20
795,18	2797,40
795,62	2758,00
796,06	2805,20
796,51	2787,60
796,95	2794,80
797,39	2774,60
797,84	2748,80
798,28	2786,80
798,72	2836,00
799,16	2804,80
799,61	2755,20
800,05	2864,60
800,49	2805,80
800,94	2757,00
801,38	2800,40
801,82	2795,80
802,26	2761,00
802,71	2834,40
803,15	2876,80
803,59	2816,00
804,03	2811,60
804,48	2790,20
804,92	2761,00
805,36	2871,40
805,80	2891,80
806,25	2878,40
806,69	2834,40
807,13	2889,80
807,57	2782,40
808,01	2793,20
808,46	2752,80
808,90	2810,00
809,34	2788,40
809,78	2781,00
810,23	2745,00
810,67	2793,80
811,11	2846,40
811,55	2964,20
811,99	2784,20
812,44	2765,00
812,88	2811,40
813,32	2882,00
813,76	2831,40
814,20	2802,80
814,64	2832,00
815,09	2820,60
815,53	2807,40
815,97	2778,80
816,41	2767,60
816,85	2770,00
817,29	2819,20
817,74	2789,80
818,18	2834,80
818,62	2775,80
819,06	2810,80
819,50	2833,00
819,94	2782,20
820,39	2815,60
820,83	2768,00
821,27	2801,60
821,71	2762,80
822,15	2864,40
822,59	2758,60
823,03	2783,40
823,47	2805,40
823,92	2750,80
824,36	2795,40
824,80	2779,80
825,24	2808,80
825,68	2808,40
826,12	2758,60
826,56	2781,60
827,00	2718,40
827,44	2792,20
827,88	2832,20
828,33	2849,20
828,77	2771,80
829,21	2822,20
829,65	2810,00
830,09	2771,00
830,53	2861,80
830,97	2772,60
831,41	2899,40
831,85	2825,80
832,29	2807,60
832,73	2753,40
833,17	2788,80
833,61	2770,40
834,05	2846,20
834,49	2819,20
834,93	2785,80
835,37	2779,80
835,82	2851,60
836,26	2786,60
836,70	2805,20
837,14	2798,40
837,58	2834,20
838,02	2771,00
838,46	2775,60
838,90	2801,80
839,34	2787,20
839,78	2857,60
840,22	2893,60
840,66	2793,60
841,10	2853,00
841,54	2720,60
841,98	2760,20
842,42	2738,80
842,86	2770,20
843,30	2829,80
843,74	2780,00
844,18	2818,60
844,62	2785,40
845,06	2754,80
845,50	2813,80
845,94	2766,60
846,37	2817,60
846,81	2780,20
847,25	2758,00
847,69	2787,00
848,13	2765,60
848,57	2775,00
849,01	2766,60
849,45	2816,20
849,89	2842,40
850,33	2820,00
850,77	2771,20
851,21	2825,20
851,65	2769,20
852,09	2814,60
852,53	2828,40
852,97	2764,20
853,40	2761,60
853,84	2826,80
854,28	2738,60
854,72	2831,80
855,16	2744,80
855,60	2762,20
856,04	2831,40
856,48	2859,40
856,92	2774,00
857,36	2808,60
857,79	2803,00
858,23	2740,60
858,67	2855,80
859,11	2733,00
859,55	2761,00
859,99	2778,20
860,43	2779,00
860,87	2806,20
861,30	2813,60
861,74	2760,20
862,18	2774,40
862,62	2824,40
863,06	2758,40
863,50	2771,20
863,94	2824,00
864,37	2761,80
864,81	2787,40
865,25	2780,00
865,69	2743,00
866,13	2789,40
866,57	2728,60
867,00	2822,80
867,44	2772,20
867,88	2809,20
868,32	2785,80
868,76	2762,00
869,19	2805,40
869,63	2780,60
870,07	2858,00
870,51	2906,60
870,95	2753,20
871,38	2789,60
871,82	2790,80
872,26	2762,80
872,70	2804,60
873,14	2808,40
873,57	2771,40
874,01	2835,00
874,45	2816,00
874,89	2782,60
875,32	2742,60
875,76	2838,80
876,20	2725,40
876,64	2804,60
877,07	2772,80
877,51	2795,20
877,95	2786,80
878,39	2767,20
878,82	2801,60
879,26	2766,20
879,70	2866,60
880,14	2755,80
880,57	2748,40
881,01	2764,80
881,45	2788,60
881,89	2812,80
882,32	2781,00
882,76	2785,00
883,20	2770,20
883,63	2770,20
884,07	2751,40
884,51	2807,60
884,94	2792,80
885,38	2804,60
885,82	2834,20
886,26	2768,20
886,69	2754,20
887,13	2863,20
887,57	2760,20
888,00	2751,00
888,44	2783,40
888,88	2779,00
889,31	2945,80
889,75	2746,00
890,19	2813,00
890,62	2764,40
891,06	2817,60
891,50	2815,00
891,93	2738,00
892,37	2772,00
892,81	2773,20
893,24	2751,40
893,68	2769,20
894,11	2803,60
894,55	2773,40
894,99	2805,20
895,42	2766,00
895,86	2763,80
896,30	2780,00
896,73	2798,00
897,17	2756,00
897,60	2757,20
898,04	2759,80
898,48	2797,40
898,91	2845,60
899,35	2758,00
899,78	2767,00
900,22	2767,60
900,66	2823,60
901,09	2803,80
901,53	2777,20
901,96	2884,00
902,40	2883,20
902,84	2759,20
903,27	2772,80
903,71	2865,20
904,14	2762,20
904,58	2797,20
905,01	2768,60
905,45	2767,60
905,88	2747,20
906,32	2852,60
906,76	2796,00
907,19	2824,20
907,63	2808,80
908,06	2779,80
908,50	2810,60
908,93	2858,40
909,37	2774,60
909,80	2745,40
910,24	2807,40
910,67	2788,00
911,11	2770,20
911,54	2759,60
911,98	2769,60
912,41	2797,80
912,85	2772,40
913,28	2807,80
913,72	2803,80
914,15	2779,20
914,59	2732,20
915,02	2752,80
915,46	2767,60
915,89	2754,40
916,33	2826,40
916,76	2764,00
917,20	2833,40
917,63	2769,20
918,07	2830,80
918,50	2756,00
918,94	2778,00
919,37	2773,00
919,81	2801,20
920,24	2838,00
920,67	2783,40
921,11	2856,80
921,54	2804,00
921,98	2772,40
922,41	2754,60
922,85	2734,00
923,28	2807,40
923,72	2858,60
924,15	2805,20
924,58	2732,80
925,02	2807,80
925,45	2752,00
925,89	2821,60
926,32	2873,40
926,75	2768,20
927,19	2817,20
927,62	2728,60
928,06	2888,60
928,49	2777,00
928,92	2747,60
929,36	2812,60
929,79	2773,20
930,23	2806,20
930,66	2810,60
931,09	2768,40
931,53	2806,80
931,96	2729,00
932,39	2871,60
932,83	2847,00
933,26	2914,80
933,70	2789,20
934,13	2837,80
934,56	2824,00
935,00	2823,80
935,43	2797,60
935,86	2751,80
936,30	2780,60
936,73	2765,40
937,16	2798,40
937,60	2753,00
938,03	2819,00
938,46	2765,20
938,90	2776,20
939,33	2808,20
939,76	2740,00
940,19	2785,80
940,63	2847,60
941,06	2894,80
941,49	2759,20
941,93	2829,00
942,36	2758,80
942,79	2776,40
943,23	2816,60
943,66	2737,40
944,09	2735,20
944,52	2826,00
944,96	2812,20
945,39	2811,00
945,82	2783,60
946,26	2803,00
946,69	2792,20
947,12	2843,40
947,55	2802,60
947,99	2788,00
948,42	2810,20
948,85	2734,20
949,28	2742,00
949,72	2763,20
950,15	2910,80
950,58	2840,80
951,01	2777,60
951,45	2770,60
951,88	2794,40
952,31	2749,40
952,74	2808,00
953,17	2768,20
953,61	2876,80
954,04	2731,60
954,47	2755,80
954,90	2774,40
955,33	2767,60
955,77	2760,00
956,20	2817,60
956,63	2741,80
957,06	2797,40
957,49	2950,00
957,93	2746,20
958,36	2796,60
958,79	2803,40
959,22	2762,80
959,65	2758,60
960,08	2757,40
960,52	2718,80
960,95	2769,60
961,38	2817,40
961,81	2795,60
962,24	2830,40
962,67	2817,00
963,11	2767,80
963,54	2795,40
963,97	2769,40
964,40	2788,40
964,83	2771,60
965,26	2765,00
965,69	2811,60
966,13	2769,60
966,56	2768,00
966,99	2808,60
967,42	2739,60
967,85	2770,00
968,28	2841,00
968,71	2976,40
969,14	2815,80
969,57	2792,80
970,01	2802,00
970,44	2745,80
970,87	2761,60
971,30	2792,20
971,73	2774,80
972,16	2783,20
972,59	2742,80
973,02	2761,80
973,45	2782,00
973,88	2809,20
974,31	2773,40
974,74	2824,60
975,17	2781,40
975,61	2753,60
976,04	2762,80
976,47	2754,00
976,90	2790,60
977,33	2750,80
977,76	2814,00
978,19	2773,80
978,62	2788,20
979,05	2772,60
979,48	2766,00
979,91	2828,80
980,34	2810,60
980,77	2770,60
981,20	2796,40
981,63	2837,60
982,06	2769,60
982,49	2780,80
982,92	2769,00
983,35	2774,60
983,78	2760,60
984,21	2828,80
984,64	2803,00
985,07	2750,80
985,50	2729,00
985,93	2787,60
986,36	2806,40
986,79	2768,20
987,22	2771,20
987,65	2806,20
988,08	2780,80
988,51	2801,80
988,94	2770,60
989,37	2796,00
989,80	2794,00
990,23	2779,60
990,66	2793,80
991,09	2779,40
991,51	2794,80
991,94	2864,40
992,37	2765,40
992,80	2741,00
993,23	2770,40
993,66	2749,00
994,09	2768,00
994,52	2816,80
994,95	2816,80
995,38	2786,40
995,81	2802,20
996,24	2743,00
996,67	2755,00
997,09	2711,80
997,52	2826,80
997,95	2821,60
998,38	2767,00
998,81	2791,20
999,24	2762,40
999,67	2847,20
1000,10	2792,60
1000,53	2775,00
1000,95	2844,60
1001,38	2760,60
1001,81	2784,60
1002,24	2827,40
1002,67	2782,40
1003,10	2791,20
1003,53	2785,00
1003,95	2822,20
1004,38	2748,80
1004,81	2801,00
1005,24	2792,00
1005,67	2836,80
1006,10	2773,40
1006,52	2742,00
1006,95	2806,00
1007,38	2777,80
1007,81	2748,40
1008,24	2743,80
1008,67	2776,40
1009,09	2768,20
1009,52	2957,60
1009,95	2831,80
1010,38	2828,20
1010,81	2793,60
1011,23	2806,20
1011,66	2829,20
1012,09	2775,60
1012,52	2805,20
1012,95	2793,80
1013,37	2796,00
1013,80	2817,80
1014,23	2765,60
1014,66	2835,20
1015,08	2731,20
1015,51	2815,20
1015,94	2764,40
1016,37	2795,60
1016,80	2758,40
1017,22	2789,80
1017,65	2779,00
1018,08	3932,60
1018,51	2751,80
1018,93	2726,60
1019,36	2920,00
1019,79	2850,00
1020,21	2823,40
1020,64	2768,60
1021,07	2780,80
1021,50	2797,00
1021,92	2798,80
1022,35	2810,20
1022,78	2785,60
1023,21	2955,80
1023,63	2840,60
1024,06	2826,20
1024,49	2807,20
1024,91	2805,80
1025,34	2805,60
1025,77	2819,20
1026,19	2761,40
1026,62	2752,60
1027,05	2904,60
1027,47	2816,00
1027,90	2813,60
1028,33	2789,80
1028,75	2811,80
1029,18	2762,80
1029,61	2898,60
1030,03	2779,60
1030,46	2793,00
1030,89	2807,20
1031,31	2852,80
1031,74	2747,40
1032,17	2805,60
1032,59	2825,80
1033,02	2787,00
1033,45	2827,80
1033,87	2756,80
1034,30	2766,60
1034,73	2792,00
1035,15	2821,60
1035,58	2777,60
1036,00	2865,40
1036,43	2764,40
1036,86	2761,60
1037,28	2794,20
1037,71	2737,60
1038,13	2826,60
1038,56	2835,00
1038,99	2817,80
1039,41	2836,60
1039,84	2864,60
1040,26	2785,80
1040,69	2781,40
1041,11	2818,60
1041,54	2781,60
1041,97	2855,20
1042,39	2840,00
1042,82	2814,80
1043,24	2844,60
1043,67	2783,20
1044,09	2830,20
1044,52	2760,60
1044,95	2774,80
1045,37	2771,60
1045,80	2759,40
1046,22	2792,20
1046,65	2814,00
1047,07	2766,00
1047,50	2804,40
1047,92	2841,20
1048,35	2752,20
1048,77	2835,60
1049,20	2829,60
1049,62	2831,40
1050,05	2783,40
1050,47	2785,20
1050,90	2809,80
1051,32	2834,80
1051,75	2841,80
1052,17	2854,40
1052,60	2800,40
1053,02	2819,20
1053,45	2717,80
1053,87	2797,20
1054,30	2737,00
1054,72	2781,00
1055,15	2773,80
1055,57	2805,40
1056,00	2812,20
1056,42	2880,40
1056,85	2847,40
1057,27	2840,40
1057,70	2798,40
1058,12	2994,00
1058,54	2754,00
1058,97	2808,60
1059,39	2824,80
1059,82	2798,00
1060,24	2788,00
1060,67	2772,60
1061,09	2822,60
1061,51	2800,40
1061,94	2774,00
1062,36	2832,00
1062,79	2861,80
1063,21	2805,40
1063,64	2790,20
1064,06	2768,00
1064,48	2838,60
1064,91	2832,80
1065,33	2771,40
1065,76	2763,40
1066,18	2753,40
1066,60	2837,60
1067,03	2808,00
1067,45	2788,40
1067,87	2807,00
1068,30	2790,00
1068,72	2874,00
1069,15	2798,40
1069,57	2775,00
1069,99	2740,80
1070,42	2828,40
1070,84	2849,40
1071,26	2826,40
1071,69	2778,40
1072,11	2826,40
1072,53	2783,40
1072,96	2751,80
1073,38	2729,80
1073,80	2834,20
1074,23	2780,00
1074,65	2745,40
1075,07	2765,20
1075,50	2786,80
1075,92	2791,40
1076,34	2769,00
1076,77	2756,80
1077,19	2787,00
1077,61	2827,00
1078,04	2779,60
1078,46	2824,20
1078,88	2863,60
1079,30	2711,20
1079,73	2801,80
1080,15	2774,60
1080,57	2792,40
1081,00	2818,80
1081,42	2790,40
1081,84	2776,40
1082,26	2799,60
1082,69	2792,80
1083,11	2786,80
1083,53	2792,00
1083,95	2795,80
1084,38	2839,20
1084,80	2786,20
1085,22	2778,60
1085,64	2851,80
1086,07	2754,00
1086,49	2775,40
1086,91	2813,80
1087,33	2744,00
1087,76	2813,20
1088,18	4307,40
1088,60	2788,60
1089,02	2765,80
1089,45	2769,20
1089,87	2782,80
1090,29	2835,00
1090,71	2785,00
1091,13	2755,60
1091,56	2797,20
1091,98	2785,80
1092,40	2761,60
1092,82	2774,40
1093,24	2765,00
1093,66	2789,60
1094,09	2763,00
1094,51	2786,00
1094,93	2782,40
1095,35	2793,20
1095,77	2761,80
1096,19	2781,20
1096,62	2795,00
1097,04	2751,40
1097,46	2781,00
1097,88	2761,00
1098,30	2820,00
1098,72	2833,00
1099,15	2813,40
1099,57	2793,40
1099,99	2798,40
1100,41	2753,00
1100,83	2778,40
1101,25	2767,60
1101,67	2789,80
1102,09	2744,60
1102,52	2773,40
1102,94	2772,00
1103,36	2778,60
1103,78	2797,80
1104,20	2767,80
1104,62	2855,00
1105,04	2712,20
1105,46	2785,40
1105,88	2779,60
1106,30	2759,20
1106,73	2790,40
1107,15	2717,80
1107,57	2744,40
1107,99	2819,60
1108,41	2734,40
1108,83	2808,60
1109,25	2786,60
1109,67	2793,20
1110,09	2717,00
1110,51	2757,00
1110,93	2719,00
1111,35	2761,20
1111,77	2736,20
1112,19	2723,00
1112,61	2706,00
1113,03	2749,60
1113,45	2739,00
1113,87	2734,80
1114,29	2765,40
1114,71	2782,60
1115,13	2746,40
1115,55	2761,80
1115,98	2741,20
1116,40	2791,20
1116,82	2763,00
1117,24	2777,40
1117,66	2729,40
1118,08	2173,80
1118,50	2182,40
1118,91	2182,80
1119,33	2184,40
>>>>>End Processed Spectral Data<<<<<
