SpectraSuite Data File
++++++++++++++++++++++++++++++++++++
Date: Wed May 16 14:25:25 EEST 2012
User: OO Maya
Dark Spectrum Present: No
Reference Spectrum Present: No
Number of Sampled Component Spectra: 1
Spectrometers: MAYP11278
Integration Time (usec): 800000 (MAYP11278)
Spectra Averaged: 4 (MAYP11278)
Boxcar Smoothing: 0 (MAYP11278)
Correct for Electrical Dark: No (MAYP11278)
Strobe/Lamp Enabled: No (MAYP11278)
Correct for Detector Non-linearity: No (MAYP11278)
Correct for Stray Light: No (MAYP11278)
Number of Pixels in Processed Spectrum: 2068
>>>>>Begin Processed Spectral Data<<<<<
188,05	2296,25
188,53	2211,75
189,01	2183,25
189,49	2183,50
189,96	3353,50
190,44	3435,50
190,92	3395,25
191,40	3430,00
191,88	3535,75
192,36	3421,75
192,83	3389,50
193,31	3360,00
193,79	3407,50
194,27	3395,00
194,75	3453,50
195,23	3401,50
195,70	3489,00
196,18	3401,50
196,66	3410,75
197,14	3647,25
197,62	3429,50
198,09	3381,50
198,57	3379,50
199,05	3387,25
199,53	3457,00
200,01	3502,50
200,48	3409,50
200,96	3404,75
201,44	3506,75
201,92	3490,75
202,39	3505,25
202,87	3374,00
203,35	3455,75
203,83	3399,25
204,31	3503,75
204,78	3555,25
205,26	3402,75
205,74	3403,25
206,22	3578,75
206,69	3413,50
207,17	3455,00
207,65	3633,75
208,13	3452,75
208,60	3491,00
209,08	3443,75
209,56	3507,75
210,04	3497,50
210,51	3460,50
210,99	3433,75
211,47	3483,00
211,94	3441,50
212,42	3396,00
212,90	3590,50
213,38	3495,00
213,85	3433,25
214,33	3607,00
214,81	3495,50
215,29	3566,50
215,76	3498,25
216,24	3501,50
216,72	3507,50
217,19	3493,50
217,67	3446,50
218,15	3438,25
218,62	3577,00
219,10	3354,50
219,58	3400,50
220,05	3432,25
220,53	3464,25
221,01	3544,25
221,49	3425,25
221,96	3511,25
222,44	3411,25
222,92	3538,75
223,39	3429,00
223,87	3534,00
224,35	3476,25
224,82	3457,75
225,30	3381,75
225,78	3454,25
226,25	3418,00
226,73	3445,75
227,21	3524,50
227,68	3461,75
228,16	3511,50
228,63	3526,50
229,11	3496,00
229,59	3444,00
230,06	3469,50
230,54	3432,75
231,02	3530,75
231,49	3563,00
231,97	3489,75
232,45	3490,00
232,92	3404,75
233,40	3460,25
233,87	3492,25
234,35	3743,00
234,83	3483,50
235,30	3422,00
235,78	3418,50
236,25	3395,50
236,73	3546,00
237,21	3645,75
237,68	3434,75
238,16	3485,00
238,63	3489,25
239,11	3487,00
239,59	3466,50
240,06	3369,00
240,54	3508,00
241,01	3553,50
241,49	3492,00
241,96	3470,75
242,44	3522,25
242,92	3557,25
243,39	3380,75
243,87	3415,00
244,34	3536,00
244,82	3582,75
245,29	3459,00
245,77	3591,25
246,24	3545,00
246,72	3432,25
247,20	3482,25
247,67	3494,75
248,15	3497,00
248,62	3524,50
249,10	3360,75
249,57	3469,00
250,05	3545,25
250,52	3491,00
251,00	3602,75
251,47	3460,75
251,95	3643,75
252,42	3589,50
252,90	3442,25
253,37	3540,00
253,85	3469,00
254,32	3457,75
254,80	3491,00
255,27	3511,00
255,75	3561,75
256,22	3416,25
256,70	3514,75
257,17	3528,00
257,65	3559,25
258,12	3727,00
258,60	3492,75
259,07	3432,25
259,55	3506,50
260,02	3545,25
260,50	3610,50
260,97	3457,00
261,45	3429,75
261,92	3579,50
262,40	3419,50
262,87	3486,50
263,35	3485,75
263,82	3390,25
264,30	3544,25
264,77	3546,00
265,25	3466,50
265,72	3504,25
266,19	3496,00
266,67	3559,50
267,14	3447,25
267,62	3471,00
268,09	3488,00
268,57	3517,50
269,04	3357,00
269,51	3421,25
269,99	3447,75
270,46	3520,75
270,94	3586,00
271,41	3483,50
271,89	3499,75
272,36	3376,00
272,83	3383,25
273,31	3343,50
273,78	3490,75
274,26	3778,50
274,73	3557,25
275,20	3538,25
275,68	3448,00
276,15	3463,75
276,63	3529,50
277,10	3548,50
277,57	3400,75
278,05	3460,00
278,52	3401,00
279,00	3832,00
279,47	3454,75
279,94	3451,00
280,42	3815,50
280,89	3560,25
281,36	3764,75
281,84	3445,50
282,31	3597,00
282,78	3455,00
283,26	3470,00
283,73	3530,25
284,21	3422,00
284,68	3405,25
285,15	3548,50
285,63	3480,00
286,10	3524,00
286,57	3545,25
287,05	3368,75
287,52	3486,50
287,99	3607,25
288,47	3476,25
288,94	3546,00
289,41	3359,25
289,89	3592,25
290,36	3441,25
290,83	3514,25
291,30	3428,25
291,78	3526,75
292,25	3690,50
292,72	3425,00
293,20	3584,25
293,67	3459,25
294,14	3555,50
294,62	3516,25
295,09	3413,25
295,56	3480,25
296,03	3521,25
296,51	3651,75
296,98	3629,25
297,45	3546,25
297,93	3532,00
298,40	3543,50
298,87	3460,25
299,34	3622,50
299,82	3476,00
300,29	3516,00
300,76	3444,25
301,23	3571,00
301,71	3576,50
302,18	3566,50
302,65	3432,25
303,12	3540,00
303,60	3585,00
304,07	3451,00
304,54	3451,75
305,01	3432,75
305,49	3517,50
305,96	3524,50
306,43	3505,25
306,90	3536,75
307,38	3450,75
307,85	3452,00
308,32	3505,50
308,79	3458,50
309,27	3566,75
309,74	3571,50
310,21	3528,75
310,68	3511,75
311,15	3534,50
311,63	3440,50
312,10	3583,50
312,57	3480,50
313,04	3661,75
313,51	3447,00
313,99	3484,75
314,46	3493,75
314,93	3450,25
315,40	3439,75
315,87	3577,75
316,34	3548,75
316,82	3517,00
317,29	3537,00
317,76	3524,00
318,23	3734,25
318,70	3489,25
319,17	3498,00
319,65	3421,75
320,12	3529,50
320,59	3635,25
321,06	3552,25
321,53	3475,50
322,00	3364,00
322,48	3420,75
322,95	3636,00
323,42	3487,00
323,89	3701,50
324,36	3406,50
324,83	3519,75
325,30	3478,75
325,78	3463,00
326,25	3462,00
326,72	3467,25
327,19	3533,00
327,66	3524,50
328,13	3548,50
328,60	3508,00
329,07	3482,00
329,54	3456,75
330,02	3473,75
330,49	3436,50
330,96	3548,75
331,43	3536,25
331,90	3657,75
332,37	3434,25
332,84	3666,50
333,31	3577,50
333,78	3529,25
334,25	3584,50
334,72	3495,50
335,20	3548,75
335,67	3798,75
336,14	3424,25
336,61	3497,50
337,08	3460,75
337,55	3508,50
338,02	3478,00
338,49	3485,25
338,96	3613,75
339,43	3566,50
339,90	3419,75
340,37	3456,50
340,84	3441,75
341,31	3557,50
341,78	3596,50
342,25	3470,25
342,72	3503,00
343,19	3565,50
343,67	3532,25
344,14	3456,00
344,61	3483,50
345,08	3449,75
345,55	3522,25
346,02	3539,75
346,49	3467,75
346,96	3444,75
347,43	3645,25
347,90	3453,00
348,37	3603,75
348,84	3526,50
349,31	3400,75
349,78	3522,50
350,25	3561,75
350,72	3505,25
351,19	3424,50
351,66	3536,00
352,13	3640,50
352,60	3521,50
353,07	3463,00
353,54	3518,50
354,01	3545,75
354,48	3528,00
354,94	3549,50
355,41	3519,00
355,88	3643,00
356,35	3465,50
356,82	3638,75
357,29	3461,25
357,76	3678,00
358,23	3565,25
358,70	3404,50
359,17	3438,00
359,64	3441,25
360,11	3449,25
360,58	3588,75
361,05	3629,00
361,52	3477,25
361,99	3504,00
362,46	3518,50
362,93	3501,25
363,39	3513,50
363,86	3712,00
364,33	3541,50
364,80	3448,75
365,27	3541,75
365,74	3449,25
366,21	3421,00
366,68	3501,50
367,15	3501,00
367,62	3494,25
368,09	3388,75
368,55	3425,50
369,02	3574,50
369,49	3422,00
369,96	3574,50
370,43	3533,25
370,90	3445,50
371,37	3472,00
371,84	3528,50
372,31	3441,25
372,77	3390,50
373,24	3480,25
373,71	3513,00
374,18	3402,50
374,65	3439,00
375,12	3515,00
375,59	3378,50
376,05	3575,25
376,52	3471,25
376,99	3415,25
377,46	3422,00
377,93	3511,50
378,40	3525,25
378,86	3491,00
379,33	3487,25
379,80	3488,00
380,27	3582,25
380,74	3613,00
381,21	3524,00
381,67	3621,75
382,14	3625,25
382,61	3407,00
383,08	3529,75
383,55	3488,50
384,02	3584,75
384,48	3507,25
384,95	3934,50
385,42	3494,00
385,89	3459,75
386,36	3471,00
386,82	3643,75
387,29	3435,75
387,76	3410,75
388,23	3575,75
388,69	3516,50
389,16	3585,50
389,63	3420,50
390,10	3539,75
390,57	3529,75
391,03	3554,00
391,50	3537,00
391,97	3516,75
392,44	3546,75
392,90	3480,50
393,37	3469,25
393,84	3722,75
394,31	3502,75
394,77	3608,00
395,24	3412,00
395,71	3547,50
396,18	3911,50
396,64	3422,75
397,11	3550,50
397,58	3578,00
398,05	3436,25
398,51	3509,75
398,98	3473,50
399,45	3441,75
399,92	3592,00
400,38	3438,50
400,85	3486,00
401,32	3472,25
401,78	3556,00
402,25	3519,50
402,72	3515,75
403,18	3428,50
403,65	3632,50
404,12	3507,75
404,59	3604,50
405,05	3653,25
405,52	3580,50
405,99	3436,50
406,45	3584,25
406,92	3527,00
407,39	3651,25
407,85	3482,50
408,32	3519,00
408,79	3546,00
409,25	3418,25
409,72	3603,00
410,19	3408,75
410,65	3592,50
411,12	3434,75
411,59	3615,75
412,05	3421,25
412,52	3388,50
412,99	3528,25
413,45	3475,25
413,92	3538,00
414,39	3539,75
414,85	3643,25
415,32	3474,75
415,78	3641,75
416,25	3559,00
416,72	3486,50
417,18	3645,75
417,65	3531,00
418,12	3518,25
418,58	3524,25
419,05	3506,00
419,51	3546,75
419,98	3486,25
420,45	3580,25
420,91	3442,00
421,38	3514,75
421,84	3458,00
422,31	3551,25
422,78	3463,75
423,24	3485,75
423,71	3552,75
424,17	3586,75
424,64	3483,00
425,11	3566,50
425,57	3484,00
426,04	3608,50
426,50	3466,50
426,97	3592,50
427,43	3550,50
427,90	3589,50
428,37	3412,50
428,83	3591,00
429,30	3536,50
429,76	3506,25
430,23	3509,50
430,69	3782,50
431,16	3417,25
431,62	3498,75
432,09	3620,75
432,55	3596,50
433,02	3494,75
433,48	3431,25
433,95	3512,00
434,42	3475,75
434,88	3570,25
435,35	3421,50
435,81	3565,50
436,28	3508,00
436,74	3424,50
437,21	3583,00
437,67	3498,00
438,14	3496,00
438,60	3458,00
439,07	3483,50
439,53	3855,00
440,00	3527,50
440,46	3551,75
440,93	3613,25
441,39	3431,75
441,86	3485,50
442,32	3706,50
442,79	3423,00
443,25	3502,25
443,72	3499,25
444,18	3402,25
444,64	3651,00
445,11	3534,00
445,57	3532,75
446,04	3499,00
446,50	3520,50
446,97	3497,50
447,43	3518,50
447,90	3449,00
448,36	3454,25
448,83	3529,75
449,29	3529,00
449,75	3482,50
450,22	3432,25
450,68	3424,50
451,15	3474,75
451,61	3498,00
452,08	3553,25
452,54	3424,50
453,00	3592,25
453,47	3497,50
453,93	3460,75
454,40	3509,75
454,86	3539,25
455,32	3452,75
455,79	3502,50
456,25	3571,25
456,72	3461,50
457,18	3595,50
457,64	3479,25
458,11	3481,00
458,57	3403,75
459,04	3499,25
459,50	3496,50
459,96	3511,50
460,43	3470,00
460,89	3406,50
461,36	3616,00
461,82	3564,00
462,28	3429,50
462,75	3404,75
463,21	3589,75
463,67	3452,75
464,14	3509,25
464,60	3522,75
465,06	3437,50
465,53	3458,25
465,99	3572,00
466,45	3488,25
466,92	3532,25
467,38	3533,50
467,84	3467,75
468,31	3509,75
468,77	3529,25
469,23	3484,50
469,70	3420,00
470,16	3495,50
470,62	3522,50
471,09	3459,75
471,55	3487,50
472,01	3432,25
472,48	3437,25
472,94	3461,25
473,40	3613,25
473,87	3481,25
474,33	3437,00
474,79	3489,00
475,25	3409,75
475,72	3516,25
476,18	3490,25
476,64	3528,50
477,11	3457,50
477,57	3488,50
478,03	3627,00
478,49	3501,75
478,96	3574,75
479,42	3439,75
479,88	3636,25
480,35	3555,75
480,81	3485,50
481,27	3444,50
481,73	3478,50
482,20	3496,00
482,66	3416,00
483,12	3485,00
483,58	3376,25
484,05	3479,75
484,51	3608,75
484,97	3512,00
485,43	3473,50
485,89	3375,50
486,36	3466,00
486,82	3376,25
487,28	3512,00
487,74	3407,25
488,21	3382,00
488,67	3426,75
489,13	3506,50
489,59	3476,00
490,05	3577,00
490,52	3377,50
490,98	3490,25
491,44	3384,00
491,90	3421,25
492,36	3364,50
492,83	3560,50
493,29	3499,25
493,75	3488,75
494,21	3396,25
494,67	3442,75
495,14	3447,75
495,60	3408,50
496,06	3518,00
496,52	3437,00
496,98	3475,00
497,44	3633,50
497,91	3569,00
498,37	3424,00
498,83	3474,50
499,29	3434,50
499,75	3663,50
500,21	3481,50
500,67	3427,25
501,14	3468,75
501,60	3449,25
502,06	3519,25
502,52	3455,25
502,98	3468,25
503,44	3462,50
503,90	3516,50
504,37	3435,75
504,83	3505,25
505,29	3499,00
505,75	3410,75
506,21	3464,00
506,67	3522,25
507,13	3445,25
507,59	3518,75
508,05	3494,50
508,51	3429,00
508,98	3433,00
509,44	3364,25
509,90	3441,50
510,36	3441,00
510,82	3438,00
511,28	3581,25
511,74	3581,25
512,20	3414,75
512,66	3363,75
513,12	3403,00
513,58	3484,00
514,04	3322,75
514,51	3552,00
514,97	3631,50
515,43	3350,25
515,89	3493,25
516,35	3544,00
516,81	3557,50
517,27	3691,75
517,73	3502,00
518,19	3465,50
518,65	3813,75
519,11	3443,50
519,57	3400,25
520,03	3381,25
520,49	3394,50
520,95	3518,50
521,41	3507,75
521,87	3532,75
522,33	3460,00
522,79	3383,75
523,25	3604,50
523,71	3547,25
524,17	3453,75
524,63	3603,25
525,09	3500,00
525,55	3529,50
526,01	3594,00
526,47	3496,25
526,93	3452,75
527,39	3466,50
527,85	3454,50
528,31	3530,25
528,77	3522,25
529,23	3453,75
529,69	3394,00
530,15	3521,00
530,61	3530,75
531,07	3375,75
531,53	3570,75
531,99	3484,75
532,45	3470,25
532,91	3471,75
533,37	3489,75
533,83	3460,25
534,29	3395,75
534,75	3458,75
535,21	3431,25
535,67	3484,75
536,12	3443,00
536,58	3528,25
537,04	3382,00
537,50	3521,75
537,96	3447,75
538,42	3456,25
538,88	3614,50
539,34	3510,75
539,80	3946,50
540,26	3365,00
540,72	3627,25
541,18	3491,00
541,63	3372,75
542,09	3532,75
542,55	3495,00
543,01	3427,50
543,47	3721,00
543,93	3402,75
544,39	3651,25
544,85	3555,25
545,31	3454,75
545,76	3425,75
546,22	3561,50
546,68	3483,50
547,14	3531,50
547,60	3530,75
548,06	3491,50
548,52	3452,75
548,98	3429,25
549,43	3389,25
549,89	3658,50
550,35	3446,50
550,81	3401,00
551,27	3510,75
551,73	3475,00
552,19	3623,25
552,64	3487,00
553,10	3404,75
553,56	3518,50
554,02	3443,75
554,48	3403,50
554,93	3498,25
555,39	3480,50
555,85	3626,00
556,31	3481,00
556,77	3579,25
557,23	3353,25
557,68	3509,75
558,14	3657,50
558,60	3447,25
559,06	3458,75
559,52	3427,75
559,97	3418,25
560,43	3403,25
560,89	3481,00
561,35	3448,25
561,81	3472,75
562,26	3438,25
562,72	3414,50
563,18	3479,50
563,64	3579,75
564,09	3425,00
564,55	3487,25
565,01	3459,00
565,47	3438,00
565,92	3472,50
566,38	3574,75
566,84	3446,25
567,30	3431,75
567,75	3476,25
568,21	3548,00
568,67	3441,50
569,13	3464,75
569,58	3534,75
570,04	3488,50
570,50	3452,25
570,96	3551,50
571,41	3525,50
571,87	3487,00
572,33	3493,75
572,78	3511,00
573,24	3454,50
573,70	3453,25
574,16	3476,25
574,61	3582,25
575,07	3563,25
575,53	3405,00
575,98	3505,00
576,44	3359,75
576,90	3560,00
577,36	3443,25
577,81	3450,50
578,27	3408,25
578,73	3590,25
579,18	3487,25
579,64	3421,50
580,10	3505,75
580,55	3484,00
581,01	3480,75
581,47	3468,75
581,92	3500,25
582,38	3479,50
582,84	3391,25
583,29	3467,75
583,75	3494,75
584,21	3463,75
584,66	3525,50
585,12	3437,25
585,57	3705,25
586,03	3448,50
586,49	3456,75
586,94	3466,00
587,40	3455,00
587,86	3552,25
588,31	3368,50
588,77	3537,75
589,22	3470,75
589,68	3421,25
590,14	3519,75
590,59	3551,75
591,05	3449,25
591,51	3358,00
591,96	3604,75
592,42	3448,00
592,87	3497,25
593,33	3475,75
593,78	3529,00
594,24	3463,50
594,70	3470,25
595,15	3593,75
595,61	3439,75
596,06	3406,75
596,52	3583,00
596,98	3536,75
597,43	3571,25
597,89	3486,25
598,34	3378,00
598,80	3497,50
599,25	3574,25
599,71	3421,25
600,16	3505,00
600,62	3580,50
601,08	3505,00
601,53	3569,75
601,99	3375,75
602,44	3760,25
602,90	3430,75
603,35	3477,75
603,81	3368,25
604,26	3356,50
604,72	3519,50
605,17	3459,00
605,63	3501,50
606,08	3486,00
606,54	3376,00
606,99	3474,25
607,45	3467,25
607,90	3471,00
608,36	3526,25
608,81	3485,00
609,27	3706,50
609,72	3535,75
610,18	3482,50
610,63	3435,75
611,09	3505,75
611,54	3388,25
612,00	3639,25
612,45	3514,25
612,91	3495,75
613,36	3744,00
613,82	3392,50
614,27	3379,50
614,73	3386,25
615,18	3381,25
615,64	3452,00
616,09	3478,75
616,54	3388,75
617,00	3454,50
617,45	3461,50
617,91	3523,50
618,36	3432,50
618,82	3451,00
619,27	3440,00
619,72	3545,00
620,18	3441,75
620,63	3548,75
621,09	3568,50
621,54	3463,00
622,00	3565,75
622,45	3589,00
622,90	3552,75
623,36	3407,00
623,81	3416,50
624,27	3563,00
624,72	3394,50
625,17	3461,00
625,63	3500,50
626,08	3427,75
626,54	3468,50
626,99	3493,50
627,44	3413,00
627,90	3530,00
628,35	3542,00
628,81	3370,25
629,26	3483,00
629,71	3495,75
630,17	3423,25
630,62	3509,25
631,07	3439,00
631,53	3545,25
631,98	3506,25
632,43	3558,00
632,89	3424,25
633,34	3442,75
633,79	3415,00
634,25	3412,00
634,70	3403,25
635,15	3424,25
635,61	3412,00
636,06	3379,75
636,51	3461,00
636,97	3463,25
637,42	3417,75
637,87	3537,25
638,33	3568,75
638,78	3438,50
639,23	3471,75
639,69	3403,00
640,14	3368,25
640,59	3502,00
641,05	3565,25
641,50	3382,50
641,95	3444,50
642,40	3449,50
642,86	3363,75
643,31	3444,50
643,76	3516,75
644,22	3439,25
644,67	3414,50
645,12	3454,75
645,57	3405,00
646,03	3492,50
646,48	3480,00
646,93	3497,75
647,38	3525,50
647,84	3497,75
648,29	3514,75
648,74	3396,75
649,19	3568,25
649,65	3498,50
650,10	3858,75
650,55	3420,00
651,00	3432,00
651,46	3451,25
651,91	3499,75
652,36	3418,00
652,81	3487,50
653,27	3467,00
653,72	3455,75
654,17	3499,75
654,62	3527,50
655,07	3467,75
655,53	3420,00
655,98	3570,00
656,43	3462,25
656,88	3500,75
657,33	3559,50
657,79	3560,75
658,24	3459,50
658,69	3533,00
659,14	3457,50
659,59	3907,75
660,05	3492,25
660,50	3630,50
660,95	3540,75
661,40	3482,25
661,85	3543,50
662,30	3489,75
662,76	3460,75
663,21	3613,00
663,66	3523,25
664,11	3546,00
664,56	3573,00
665,01	3501,25
665,47	3618,75
665,92	3504,75
666,37	3634,00
666,82	3627,25
667,27	3866,50
667,72	3777,75
668,17	3594,50
668,62	3712,75
669,08	3624,75
669,53	3890,75
669,98	3596,50
670,43	3641,75
670,88	3842,50
671,33	3753,25
671,78	3929,50
672,23	4005,75
672,69	3801,25
673,14	3826,00
673,59	3942,50
674,04	4195,50
674,49	3917,75
674,94	3981,75
675,39	3856,00
675,84	3912,75
676,29	4038,50
676,74	4076,25
677,19	4103,25
677,64	4125,25
678,10	4493,00
678,55	4216,75
679,00	4319,50
679,45	4400,25
679,90	4430,50
680,35	4565,25
680,80	4598,50
681,25	4530,75
681,70	4646,00
682,15	4847,00
682,60	4981,25
683,05	5182,75
683,50	5259,75
683,95	5314,50
684,40	5557,75
684,85	5580,25
685,30	5693,00
685,75	5906,25
686,20	5984,00
686,65	6062,50
687,10	6318,25
687,55	6411,00
688,00	6648,50
688,45	6764,75
688,90	7224,75
689,35	7206,50
689,80	7296,00
690,25	7539,50
690,70	7747,75
691,15	7931,50
691,60	8197,50
692,05	8362,25
692,50	8694,25
692,95	8932,25
693,40	9280,75
693,85	9530,75
694,30	9786,25
694,75	10096,25
695,20	10745,75
695,65	10732,25
696,10	11049,50
696,55	11509,50
697,00	11572,00
697,45	11898,75
697,90	12347,00
698,35	12647,00
698,80	13211,75
699,24	13549,75
699,69	13875,25
700,14	14375,75
700,59	14869,25
701,04	15337,75
701,49	16019,00
701,94	16057,75
702,39	16760,25
702,84	17102,50
703,29	17713,75
703,74	18422,50
704,19	18913,25
704,63	19529,75
705,08	20247,50
705,53	20814,50
705,98	21364,75
706,43	21820,50
706,88	22670,25
707,33	23420,25
707,78	24214,00
708,22	25140,25
708,67	25896,25
709,12	26608,75
709,57	27326,50
710,02	28187,75
710,47	28985,75
710,92	29926,00
711,37	31117,50
711,81	32111,25
712,26	33107,25
712,71	34043,00
713,16	35348,00
713,61	36161,75
714,06	37272,75
714,50	38379,00
714,95	39515,00
715,40	40759,00
715,85	42027,25
716,30	43303,00
716,75	44517,50
717,19	45598,00
717,64	46535,50
718,09	47784,25
718,54	49100,75
718,99	49983,25
719,43	51044,75
719,88	52286,50
720,33	53271,25
720,78	54179,00
721,23	55028,50
721,67	55444,75
722,12	56017,25
722,57	56221,75
723,02	56345,50
723,47	56359,75
723,91	56474,75
724,36	56436,25
724,81	56475,00
725,26	56025,75
725,70	55797,75
726,15	55278,50
726,60	54523,00
727,05	53846,00
727,49	52847,50
727,94	52016,00
728,39	51189,25
728,84	50213,50
729,28	49476,25
729,73	48481,75
730,18	47569,50
730,63	46371,75
731,07	45493,75
731,52	44276,00
731,97	42953,25
732,41	41647,00
732,86	40241,25
733,31	39032,75
733,76	37890,50
734,20	36622,50
734,65	35577,75
735,10	34235,00
735,54	32840,50
735,99	31767,50
736,44	30131,75
736,89	28763,25
737,33	27552,75
737,78	26224,25
738,23	25074,75
738,67	23888,50
739,12	22882,00
739,57	21801,25
740,01	20948,25
740,46	19849,25
740,91	18816,00
741,35	17975,75
741,80	17172,75
742,25	16338,25
742,69	15508,25
743,14	14824,25
743,59	14201,00
744,03	13644,25
744,48	13171,25
744,92	12605,25
745,37	12064,25
745,82	11644,75
746,26	11212,50
746,71	10544,50
747,16	10144,50
747,60	9697,00
748,05	9473,00
748,49	9098,75
748,94	8744,50
749,39	8573,75
749,83	8512,50
750,28	7957,75
750,73	7635,00
751,17	7330,25
751,62	7170,50
752,06	6917,50
752,51	6751,25
752,95	6749,00
753,40	6334,00
753,85	6206,75
754,29	5954,25
754,74	5844,25
755,18	5689,00
755,63	5597,25
756,07	5504,25
756,52	5430,00
756,97	5151,50
757,41	5216,75
757,86	5011,75
758,30	4897,50
758,75	4829,25
759,19	4712,25
759,64	4578,00
760,08	4581,75
760,53	4566,25
760,98	4432,75
761,42	4430,50
761,87	4463,50
762,31	4269,75
762,76	4130,75
763,20	4190,50
763,65	4217,75
764,09	4121,25
764,54	3984,50
764,98	4013,50
765,43	4047,00
765,87	3936,50
766,32	3833,25
766,76	3836,75
767,21	3873,75
767,65	3896,25
768,10	3866,75
768,54	3894,50
768,99	3811,50
769,43	3986,00
769,88	3693,00
770,32	3740,75
770,77	3669,00
771,21	3618,50
771,65	3740,75
772,10	3703,25
772,54	3709,25
772,99	3574,50
773,43	3634,50
773,88	3616,00
774,32	3508,50
774,77	3604,75
775,21	3545,00
775,65	3624,00
776,10	3594,00
776,54	3509,25
776,99	3569,50
777,43	3553,25
777,88	3615,00
778,32	3605,00
778,76	3522,00
779,21	3565,50
779,65	3798,50
780,10	3667,00
780,54	3562,00
780,99	3615,00
781,43	3561,25
781,87	3471,00
782,32	3552,25
782,76	3441,00
783,20	3494,50
783,65	3572,50
784,09	3589,50
784,54	3503,50
784,98	3476,25
785,42	3466,25
785,87	3453,75
786,31	3563,00
786,75	3554,50
787,20	3578,25
787,64	3414,25
788,09	3442,75
788,53	3515,75
788,97	3420,75
789,42	3470,25
789,86	3429,50
790,30	3491,50
790,75	3414,75
791,19	3438,00
791,63	3573,75
792,08	3448,00
792,52	3481,00
792,96	3431,75
793,41	3857,75
793,85	3571,25
794,29	3491,75
794,74	3487,25
795,18	3469,25
795,62	3394,75
796,06	3515,25
796,51	3482,50
796,95	3465,50
797,39	3401,75
797,84	3385,50
798,28	3465,75
798,72	3573,75
799,16	3495,50
799,61	3408,50
800,05	3606,75
800,49	3493,25
800,94	3410,00
801,38	3484,00
801,82	3496,25
802,26	3394,00
802,71	3556,50
803,15	3617,00
803,59	3518,00
804,03	3480,00
804,48	3448,00
804,92	3392,00
805,36	3635,50
805,80	3667,75
806,25	3609,25
806,69	3531,25
807,13	3659,75
807,57	3431,25
808,01	3478,25
808,46	3407,00
808,90	3503,00
809,34	3471,25
809,78	3446,25
810,23	3385,75
810,67	3517,50
811,11	3598,00
811,55	3793,00
811,99	3433,75
812,44	3427,50
812,88	3525,00
813,32	3615,50
813,76	3543,50
814,20	3492,75
814,64	3531,00
815,09	3500,50
815,53	3477,25
815,97	3426,00
816,41	3392,50
816,85	3420,75
817,29	3513,25
817,74	3466,75
818,18	3548,25
818,62	3446,75
819,06	3513,25
819,50	3561,75
819,94	3434,75
820,39	3500,75
820,83	3442,75
821,27	3479,50
821,71	3406,50
822,15	3603,00
822,59	3414,00
823,03	3476,25
823,47	3485,00
823,92	3403,50
824,36	3485,75
824,80	3457,50
825,24	3486,25
825,68	3505,75
826,12	3408,25
826,56	3440,00
827,00	3331,75
827,44	3462,50
827,88	3545,25
828,33	3555,75
828,77	3436,25
829,21	3532,00
829,65	3493,50
830,09	3434,50
830,53	3626,75
830,97	3455,00
831,41	3687,50
831,85	3569,50
832,29	3525,75
832,73	3365,75
833,17	3453,75
833,61	3440,25
834,05	3550,75
834,49	3532,25
834,93	3462,75
835,37	3427,25
835,82	3537,75
836,26	3461,50
836,70	3502,00
837,14	3445,00
837,58	3555,50
838,02	3423,00
838,46	3420,25
838,90	3494,00
839,34	3456,75
839,78	3625,25
840,22	3687,50
840,66	3491,75
841,10	3574,00
841,54	3343,25
841,98	3439,25
842,42	3380,75
842,86	3447,00
843,30	3516,75
843,74	3488,25
844,18	3538,25
844,62	3475,25
845,06	3405,00
845,50	3529,00
845,94	3470,25
846,37	3548,25
846,81	3425,00
847,25	3406,50
847,69	3472,75
848,13	3410,50
848,57	3426,50
849,01	3422,00
849,45	3522,25
849,89	3572,00
850,33	3534,50
850,77	3459,50
851,21	3548,50
851,65	3420,50
852,09	3482,00
852,53	3577,00
852,97	3438,00
853,40	3435,75
853,84	3520,25
854,28	3383,00
854,72	3552,25
855,16	3372,50
855,60	3438,50
856,04	3561,50
856,48	3611,75
856,92	3490,25
857,36	3518,00
857,79	3481,75
858,23	3405,00
858,67	3581,00
859,11	3352,50
859,55	3423,00
859,99	3441,00
860,43	3443,75
860,87	3498,75
861,30	3524,25
861,74	3416,25
862,18	3440,50
862,62	3515,00
863,06	3436,25
863,50	3443,25
863,94	3544,25
864,37	3416,75
864,81	3470,50
865,25	3489,00
865,69	3364,00
866,13	3438,00
866,57	3357,50
867,00	3509,25
867,44	3395,50
867,88	3486,50
868,32	3463,75
868,76	3427,75
869,19	3497,75
869,63	3457,25
870,07	3631,75
870,51	3686,75
870,95	3380,25
871,38	3456,75
871,82	3475,75
872,26	3420,50
872,70	3471,50
873,14	3516,25
873,57	3454,50
874,01	3565,25
874,45	3544,00
874,89	3448,00
875,32	3383,25
875,76	3582,75
876,20	3336,75
876,64	3513,00
877,07	3459,25
877,51	3451,75
877,95	3468,75
878,39	3450,00
878,82	3498,25
879,26	3456,25
879,70	3596,50
880,14	3407,50
880,57	3402,00
881,01	3438,25
881,45	3450,75
881,89	3544,50
882,32	3448,25
882,76	3463,50
883,20	3443,00
883,63	3446,50
884,07	3375,50
884,51	3511,50
884,94	3466,00
885,38	3518,25
885,82	3509,75
886,26	3429,00
886,69	3406,50
887,13	3589,25
887,57	3392,75
888,00	3384,25
888,44	3439,50
888,88	3424,75
889,31	3759,50
889,75	3352,00
890,19	3547,75
890,62	3412,75
891,06	3492,75
891,50	3513,25
891,93	3346,50
892,37	3392,50
892,81	3441,25
893,24	3373,25
893,68	3417,00
894,11	3482,50
894,55	3419,00
894,99	3492,25
895,42	3420,75
895,86	3388,50
896,30	3477,75
896,73	3498,50
897,17	3401,00
897,60	3387,00
898,04	3396,75
898,48	3455,00
898,91	3535,75
899,35	3389,00
899,78	3410,00
900,22	3405,25
900,66	3528,50
901,09	3508,00
901,53	3426,00
901,96	3607,25
902,40	3630,50
902,84	3400,50
903,27	3413,50
903,71	3606,75
904,14	3396,50
904,58	3481,25
905,01	3401,00
905,45	3426,75
905,88	3386,25
906,32	3561,25
906,76	3454,75
907,19	3527,00
907,63	3474,00
908,06	3436,00
908,50	3509,50
908,93	3569,75
909,37	3425,25
909,80	3360,25
910,24	3464,75
910,67	3465,75
911,11	3427,50
911,54	3407,25
911,98	3433,50
912,41	3454,75
912,85	3410,75
913,28	3500,00
913,72	3495,50
914,15	3463,50
914,59	3373,75
915,02	3363,75
915,46	3423,25
915,89	3407,00
916,33	3524,75
916,76	3406,50
917,20	3558,25
917,63	3404,75
918,07	3512,00
918,50	3386,25
918,94	3457,75
919,37	3435,50
919,81	3490,00
920,24	3511,00
920,67	3442,25
921,11	3608,75
921,54	3487,75
921,98	3425,50
922,41	3375,00
922,85	3359,50
923,28	3477,25
923,72	3597,75
924,15	3492,50
924,58	3336,00
925,02	3511,75
925,45	3364,00
925,89	3480,25
926,32	3668,00
926,75	3434,00
927,19	3511,50
927,62	3354,25
928,06	3662,25
928,49	3436,25
928,92	3374,25
929,36	3548,00
929,79	3413,75
930,23	3471,50
930,66	3520,00
931,09	3414,50
931,53	3475,25
931,96	3340,50
932,39	3594,25
932,83	3536,00
933,26	3678,00
933,70	3448,50
934,13	3552,25
934,56	3517,50
935,00	3512,00
935,43	3478,00
935,86	3372,50
936,30	3442,75
936,73	3402,00
937,16	3465,50
937,60	3392,25
938,03	3504,75
938,46	3402,00
938,90	3416,75
939,33	3527,75
939,76	3362,25
940,19	3454,50
940,63	3538,00
941,06	3646,00
941,49	3419,50
941,93	3538,50
942,36	3397,50
942,79	3403,25
943,23	3533,50
943,66	3370,50
944,09	3351,50
944,52	3514,25
944,96	3423,50
945,39	3483,00
945,82	3457,00
946,26	3451,75
946,69	3471,00
947,12	3548,75
947,55	3427,75
947,99	3454,75
948,42	3513,25
948,85	3359,00
949,28	3360,75
949,72	3372,50
950,15	3671,25
950,58	3575,75
951,01	3422,75
951,45	3399,50
951,88	3478,25
952,31	3354,75
952,74	3536,25
953,17	3409,50
953,61	3611,00
954,04	3359,50
954,47	3412,00
954,90	3437,00
955,33	3384,25
955,77	3428,00
956,20	3500,50
956,63	3377,25
957,06	3483,00
957,49	3725,75
957,93	3370,00
958,36	3500,75
958,79	3476,75
959,22	3403,25
959,65	3387,50
960,08	3397,25
960,52	3304,75
960,95	3433,50
961,38	3493,25
961,81	3491,25
962,24	3538,00
962,67	3510,00
963,11	3394,50
963,54	3467,50
963,97	3433,50
964,40	3443,50
964,83	3428,50
965,26	3407,00
965,69	3507,75
966,13	3413,25
966,56	3428,00
966,99	3496,25
967,42	3407,75
967,85	3398,25
968,28	3561,25
968,71	3839,75
969,14	3508,50
969,57	3425,75
970,01	3488,00
970,44	3366,50
970,87	3418,00
971,30	3493,50
971,73	3401,50
972,16	3449,00
972,59	3352,00
973,02	3386,25
973,45	3441,75
973,88	3477,50
974,31	3427,00
974,74	3501,00
975,17	3462,00
975,61	3405,25
976,04	3407,75
976,47	3402,50
976,90	3474,25
977,33	3361,25
977,76	3501,25
978,19	3454,25
978,62	3425,50
979,05	3423,75
979,48	3433,75
979,91	3526,75
980,34	3475,25
980,77	3398,50
981,20	3461,00
981,63	3523,00
982,06	3437,25
982,49	3433,50
982,92	3411,75
983,35	3411,75
983,78	3409,25
984,21	3503,75
984,64	3538,00
985,07	3356,00
985,50	3307,75
985,93	3408,75
986,36	3503,50
986,79	3407,75
987,22	3384,00
987,65	3491,25
988,08	3430,00
988,51	3469,25
988,94	3447,00
989,37	3461,50
989,80	3423,00
990,23	3412,25
990,66	3456,50
991,09	3434,50
991,51	3464,50
991,94	3594,50
992,37	3405,25
992,80	3396,50
993,23	3451,00
993,66	3381,50
994,09	3393,00
994,52	3464,25
994,95	3496,00
995,38	3457,50
995,81	3422,75
996,24	3343,50
996,67	3364,50
997,09	3299,25
997,52	3527,50
997,95	3507,25
998,38	3405,75
998,81	3482,00
999,24	3352,75
999,67	3577,50
1000,10	3435,00
1000,53	3469,50
1000,95	3548,50
1001,38	3384,50
1001,81	3460,25
1002,24	3482,00
1002,67	3435,00
1003,10	3461,50
1003,53	3444,50
1003,95	3501,75
1004,38	3394,25
1004,81	3469,50
1005,24	3439,50
1005,67	3557,75
1006,10	3441,50
1006,52	3341,00
1006,95	3498,50
1007,38	3417,00
1007,81	3372,50
1008,24	3341,75
1008,67	3425,75
1009,09	3409,00
1009,52	3785,25
1009,95	3545,00
1010,38	3545,25
1010,81	3493,75
1011,23	3494,00
1011,66	3534,00
1012,09	3446,50
1012,52	3494,00
1012,95	3472,50
1013,37	3475,75
1013,80	3483,75
1014,23	3371,50
1014,66	3563,00
1015,08	3345,75
1015,51	3510,75
1015,94	3393,50
1016,37	3466,50
1016,80	3362,75
1017,22	3474,75
1017,65	3412,00
1018,08	3410,25
1018,51	3436,50
1018,93	3337,00
1019,36	3723,25
1019,79	3532,50
1020,21	3512,75
1020,64	3426,75
1021,07	3433,00
1021,50	3473,00
1021,92	3460,25
1022,35	3490,75
1022,78	3453,75
1023,21	3772,50
1023,63	3532,00
1024,06	3532,25
1024,49	3496,25
1024,91	3469,25
1025,34	3471,75
1025,77	3517,25
1026,19	3384,50
1026,62	3383,25
1027,05	3659,00
1027,47	3498,75
1027,90	3501,00
1028,33	3461,75
1028,75	3482,75
1029,18	3392,25
1029,61	3645,50
1030,03	3435,75
1030,46	3436,75
1030,89	3492,50
1031,31	3587,00
1031,74	3366,75
1032,17	3467,75
1032,59	3519,75
1033,02	3425,75
1033,45	3528,00
1033,87	3402,75
1034,30	3404,50
1034,73	3494,50
1035,15	3521,75
1035,58	3425,75
1036,00	3599,25
1036,43	3403,00
1036,86	3425,25
1037,28	3492,25
1037,71	3347,00
1038,13	3516,50
1038,56	3529,75
1038,99	3487,00
1039,41	3547,50
1039,84	3594,00
1040,26	3435,75
1040,69	3460,25
1041,11	3465,50
1041,54	3417,50
1041,97	3580,00
1042,39	3569,00
1042,82	3489,75
1043,24	3527,00
1043,67	3444,50
1044,09	3518,75
1044,52	3383,00
1044,95	3440,00
1045,37	3421,25
1045,80	3355,50
1046,22	3474,00
1046,65	3489,00
1047,07	3371,00
1047,50	3457,50
1047,92	3539,00
1048,35	3393,00
1048,77	3520,50
1049,20	3518,00
1049,62	3539,50
1050,05	3438,00
1050,47	3422,50
1050,90	3504,25
1051,32	3495,50
1051,75	3571,00
1052,17	3548,75
1052,60	3453,25
1053,02	3516,25
1053,45	3311,50
1053,87	3467,25
1054,30	3341,25
1054,72	3434,75
1055,15	3384,75
1055,57	3467,25
1056,00	3514,00
1056,42	3618,00
1056,85	3545,25
1057,27	3556,75
1057,70	3445,00
1058,12	3817,25
1058,54	3380,75
1058,97	3503,75
1059,39	3512,00
1059,82	3457,75
1060,24	3432,75
1060,67	3411,50
1061,09	3509,00
1061,51	3461,50
1061,94	3437,50
1062,36	3545,25
1062,79	3591,25
1063,21	3461,00
1063,64	3434,25
1064,06	3409,25
1064,48	3536,00
1064,91	3536,75
1065,33	3435,00
1065,76	3398,50
1066,18	3354,25
1066,60	3521,75
1067,03	3467,25
1067,45	3451,50
1067,87	3476,25
1068,30	3429,75
1068,72	3632,00
1069,15	3462,75
1069,57	3406,25
1069,99	3385,75
1070,42	3545,00
1070,84	3544,25
1071,26	3552,25
1071,69	3442,00
1072,11	3517,00
1072,53	3425,75
1072,96	3400,75
1073,38	3362,50
1073,80	3495,75
1074,23	3411,75
1074,65	3364,75
1075,07	3429,00
1075,50	3450,00
1075,92	3496,00
1076,34	3407,25
1076,77	3385,50
1077,19	3420,75
1077,61	3527,25
1078,04	3428,75
1078,46	3527,50
1078,88	3567,75
1079,30	3313,50
1079,73	3469,50
1080,15	3414,50
1080,57	3442,50
1081,00	3496,50
1081,42	3451,75
1081,84	3405,75
1082,26	3481,50
1082,69	3445,75
1083,11	3440,50
1083,53	3448,25
1083,95	3460,25
1084,38	3544,25
1084,80	3454,25
1085,22	3428,75
1085,64	3544,50
1086,07	3385,00
1086,49	3400,75
1086,91	3484,75
1087,33	3371,00
1087,76	3486,50
1088,18	5952,25
1088,60	3455,50
1089,02	3401,50
1089,45	3425,75
1089,87	3405,25
1090,29	3558,25
1090,71	3410,00
1091,13	3392,50
1091,56	3453,00
1091,98	3444,50
1092,40	3385,25
1092,82	3455,50
1093,24	3407,25
1093,66	3439,50
1094,09	3442,00
1094,51	3463,25
1094,93	3432,75
1095,35	3467,25
1095,77	3403,00
1096,19	3453,75
1096,62	3497,50
1097,04	3364,00
1097,46	3448,00
1097,88	3402,75
1098,30	3512,75
1098,72	3468,25
1099,15	3510,75
1099,57	3422,50
1099,99	3430,75
1100,41	3395,25
1100,83	3432,75
1101,25	3398,75
1101,67	3444,50
1102,09	3360,75
1102,52	3427,25
1102,94	3423,75
1103,36	3426,75
1103,78	3465,00
1104,20	3405,00
1104,62	3580,50
1105,04	3295,75
1105,46	3435,75
1105,88	3448,25
1106,30	3394,00
1106,73	3432,00
1107,15	3294,25
1107,57	3323,00
1107,99	3517,50
1108,41	3336,75
1108,83	3464,25
1109,25	3457,50
1109,67	3469,25
1110,09	3299,25
1110,51	3390,25
1110,93	3334,50
1111,35	3385,50
1111,77	3345,75
1112,19	3334,00
1112,61	3311,75
1113,03	3372,50
1113,45	3338,75
1113,87	3356,00
1114,29	3401,50
1114,71	3445,50
1115,13	3365,00
1115,55	3385,50
1115,98	3349,25
1116,40	3457,75
1116,82	3420,75
1117,24	3365,00
1117,66	3320,25
1118,08	2158,00
1118,50	2183,75
1118,91	2182,50
1119,33	2184,50
>>>>>End Processed Spectral Data<<<<<
