SpectraSuite Data File
++++++++++++++++++++++++++++++++++++
Date: Wed May 16 13:51:17 EEST 2012
User: OO Maya
Dark Spectrum Present: No
Reference Spectrum Present: No
Number of Sampled Component Spectra: 1
Spectrometers: MAYP11278
Integration Time (usec): 550000 (MAYP11278)
Spectra Averaged: 3 (MAYP11278)
Boxcar Smoothing: 0 (MAYP11278)
Correct for Electrical Dark: No (MAYP11278)
Strobe/Lamp Enabled: No (MAYP11278)
Correct for Detector Non-linearity: No (MAYP11278)
Correct for Stray Light: No (MAYP11278)
Number of Pixels in Processed Spectrum: 2068
>>>>>Begin Processed Spectral Data<<<<<
188,05	2281,67
188,53	2208,67
189,01	2173,33
189,49	2174,00
189,96	2734,00
190,44	2786,00
190,92	2750,33
191,40	2780,33
191,88	2811,00
192,36	2758,67
192,83	2739,33
193,31	2719,00
193,79	2766,33
194,27	2759,33
194,75	2782,67
195,23	2760,67
195,70	2799,33
196,18	2750,33
196,66	2762,33
197,14	2887,67
197,62	2771,67
198,09	2727,67
198,57	2758,33
199,05	2764,00
199,53	2767,67
200,01	2800,00
200,48	2740,67
200,96	2760,33
201,44	2806,67
201,92	2810,67
202,39	2801,67
202,87	2738,00
203,35	2791,67
203,83	2746,67
204,31	2826,67
204,78	2831,33
205,26	2755,67
205,74	2754,33
206,22	2850,67
206,69	2754,33
207,17	2788,67
207,65	2883,33
208,13	2790,00
208,60	2803,67
209,08	2768,67
209,56	2826,33
210,04	2787,67
210,51	2783,67
210,99	2770,33
211,47	2794,33
211,94	2768,67
212,42	2748,33
212,90	2853,67
213,38	2792,33
213,85	2760,33
214,33	2875,00
214,81	2799,67
215,29	2848,00
215,76	2802,00
216,24	2812,67
216,72	2817,33
217,19	2817,67
217,67	2779,67
218,15	2769,33
218,62	2834,67
219,10	2733,67
219,58	2757,00
220,05	2758,33
220,53	2795,33
221,01	2829,33
221,49	2780,33
221,96	2842,67
222,44	2786,67
222,92	2829,00
223,39	2753,00
223,87	2816,33
224,35	2806,00
224,82	2771,33
225,30	2742,67
225,78	2787,33
226,25	2772,33
226,73	2801,67
227,21	2817,33
227,68	2785,67
228,16	2795,67
228,63	2816,33
229,11	2812,33
229,59	2775,00
230,06	2777,67
230,54	2770,33
231,02	2811,33
231,49	2849,67
231,97	2797,33
232,45	2802,00
232,92	2738,00
233,40	2798,33
233,87	2797,67
234,35	2938,67
234,83	2814,00
235,30	2766,33
235,78	2765,67
236,25	2746,33
236,73	2814,00
237,21	2874,67
237,68	2777,67
238,16	2810,67
238,63	2802,33
239,11	2801,67
239,59	2796,00
240,06	2747,33
240,54	2816,67
241,01	2844,00
241,49	2803,67
241,96	2795,67
242,44	2826,00
242,92	2846,00
243,39	2755,67
243,87	2766,33
244,34	2853,33
244,82	2857,67
245,29	2781,67
245,77	2854,67
246,24	2828,33
246,72	2765,67
247,20	2781,00
247,67	2785,67
248,15	2817,33
248,62	2840,00
249,10	2728,00
249,57	2802,67
250,05	2839,33
250,52	2808,67
251,00	2860,33
251,47	2791,33
251,95	2874,67
252,42	2853,00
252,90	2774,67
253,37	2842,33
253,85	2799,33
254,32	2795,67
254,80	2812,33
255,27	2826,00
255,75	2843,67
256,22	2774,33
256,70	2829,67
257,17	2815,00
257,65	2844,33
258,12	2921,00
258,60	2802,33
259,07	2785,67
259,55	2806,33
260,02	2842,33
260,50	2881,33
260,97	2796,00
261,45	2783,00
261,92	2860,33
262,40	2780,33
262,87	2805,67
263,35	2816,33
263,82	2747,67
264,30	2824,00
264,77	2853,33
265,25	2774,67
265,72	2807,33
266,19	2801,67
266,67	2824,67
267,14	2804,67
267,62	2799,33
268,09	2812,00
268,57	2808,00
269,04	2730,33
269,51	2775,00
269,99	2779,33
270,46	2828,33
270,94	2863,67
271,41	2783,67
271,89	2808,33
272,36	2754,00
272,83	2760,67
273,31	2723,67
273,78	2810,67
274,26	2964,00
274,73	2829,67
275,20	2839,00
275,68	2776,00
276,15	2791,33
276,63	2822,00
277,10	2826,00
277,57	2739,67
278,05	2778,67
278,52	2759,00
279,00	2981,00
279,47	2777,33
279,94	2781,00
280,42	2980,33
280,89	2841,33
281,36	2945,67
281,84	2780,67
282,31	2852,33
282,78	2794,00
283,26	2799,67
283,73	2824,00
284,21	2781,00
284,68	2773,33
285,15	2845,00
285,63	2800,67
286,10	2814,67
286,57	2821,00
287,05	2757,67
287,52	2813,00
287,99	2861,33
288,47	2798,00
288,94	2831,33
289,41	2732,67
289,89	2878,67
290,36	2763,67
290,83	2823,00
291,30	2791,67
291,78	2840,33
292,25	2892,33
292,72	2762,33
293,20	2849,33
293,67	2795,67
294,14	2851,33
294,62	2825,33
295,09	2766,67
295,56	2795,00
296,03	2820,67
296,51	2878,00
296,98	2877,67
297,45	2844,33
297,93	2819,67
298,40	2836,33
298,87	2776,67
299,34	2868,67
299,82	2804,67
300,29	2835,33
300,76	2788,00
301,23	2849,00
301,71	2848,33
302,18	2840,33
302,65	2771,00
303,12	2818,33
303,60	2853,00
304,07	2764,00
304,54	2789,00
305,01	2761,67
305,49	2820,67
305,96	2830,67
306,43	2818,00
306,90	2832,00
307,38	2789,67
307,85	2797,33
308,32	2806,33
308,79	2802,67
309,27	2856,33
309,74	2840,00
310,21	2827,33
310,68	2820,00
311,15	2847,67
311,63	2780,00
312,10	2844,00
312,57	2805,33
313,04	2891,67
313,51	2797,67
313,99	2801,33
314,46	2826,33
314,93	2789,33
315,40	2786,33
315,87	2839,67
316,34	2848,00
316,82	2818,33
317,29	2829,67
317,76	2836,00
318,23	2958,67
318,70	2828,67
319,17	2801,67
319,65	2773,67
320,12	2840,67
320,59	2890,33
321,06	2848,67
321,53	2804,67
322,00	2750,67
322,48	2769,33
322,95	2875,33
323,42	2810,33
323,89	2932,67
324,36	2777,33
324,83	2831,33
325,30	2793,00
325,78	2794,67
326,25	2787,33
326,72	2787,67
327,19	2844,33
327,66	2835,00
328,13	2832,67
328,60	2838,00
329,07	2810,67
329,54	2812,67
330,02	2798,33
330,49	2785,67
330,96	2848,33
331,43	2830,00
331,90	2929,33
332,37	2802,00
332,84	2899,33
333,31	2843,67
333,78	2837,00
334,25	2875,33
334,72	2817,67
335,20	2836,33
335,67	2992,67
336,14	2780,33
336,61	2822,00
337,08	2832,67
337,55	2843,00
338,02	2789,67
338,49	2820,33
338,96	2896,00
339,43	2859,00
339,90	2806,67
340,37	2797,00
340,84	2794,67
341,31	2849,67
341,78	2884,33
342,25	2814,00
342,72	2850,67
343,19	2849,33
343,67	2838,33
344,14	2804,00
344,61	2832,67
345,08	2813,00
345,55	2836,33
346,02	2876,00
346,49	2807,67
346,96	2815,00
347,43	2903,67
347,90	2804,67
348,37	2882,33
348,84	2850,67
349,31	2790,67
349,78	2843,00
350,25	2864,00
350,72	2851,33
351,19	2823,00
351,66	2870,33
352,13	2938,33
352,60	2873,33
353,07	2836,33
353,54	2877,00
354,01	2877,00
354,48	2888,67
354,94	2895,00
355,41	2887,67
355,88	2959,33
356,35	2854,67
356,82	2961,00
357,29	2882,33
357,76	3019,00
358,23	2980,33
358,70	2889,00
359,17	2921,67
359,64	2942,67
360,11	2994,67
360,58	3063,67
361,05	3107,00
361,52	3077,67
361,99	3135,33
362,46	3193,33
362,93	3235,67
363,39	3322,67
363,86	3510,67
364,33	3537,00
364,80	3627,33
365,27	3823,33
365,74	3943,00
366,21	4135,67
366,68	4390,67
367,15	4691,00
367,62	5030,33
368,09	5452,00
368,55	6018,67
369,02	6758,33
369,49	7559,67
369,96	8591,00
370,43	9734,00
370,90	11072,33
371,37	12572,00
371,84	14463,00
372,31	16306,00
372,77	18517,67
373,24	20997,00
373,71	23616,33
374,18	26382,00
374,65	29430,67
375,12	32741,67
375,59	35929,33
376,05	39722,67
376,52	43004,67
376,99	46419,00
377,46	49773,00
377,93	52940,33
378,40	55381,67
378,86	57364,00
379,33	58909,33
379,80	59858,67
380,27	59994,33
380,74	59503,67
381,21	58482,00
381,67	56714,67
382,14	54596,67
382,61	51912,67
383,08	49199,67
383,55	46435,67
384,02	43494,67
384,48	40623,00
384,95	37937,67
385,42	35229,33
385,89	32732,67
386,36	30548,33
386,82	28693,33
387,29	26733,67
387,76	25177,00
388,23	23877,33
388,69	22585,00
389,16	21331,00
389,63	20126,00
390,10	19266,33
390,57	18220,33
391,03	17313,67
391,50	16454,67
391,97	15509,33
392,44	14657,67
392,90	13847,33
393,37	13057,00
393,84	12385,67
394,31	11547,33
394,77	10929,33
395,24	10301,67
395,71	9710,67
396,18	9345,33
396,64	8653,67
397,11	8241,67
397,58	7840,00
398,05	7494,67
398,51	7180,33
398,98	6895,67
399,45	6620,67
399,92	6456,67
400,38	6179,33
400,85	5995,33
401,32	5828,67
401,78	5698,67
402,25	5476,00
402,72	5303,33
403,18	5142,67
403,65	5078,33
404,12	4860,67
404,59	4743,33
405,05	4686,33
405,52	4521,00
405,99	4350,00
406,45	4325,00
406,92	4174,67
407,39	4176,33
407,85	3972,00
408,32	3913,67
408,79	3850,00
409,25	3694,33
409,72	3740,33
410,19	3598,33
410,65	3617,67
411,12	3503,67
411,59	3539,33
412,05	3410,67
412,52	3344,00
412,99	3396,67
413,45	3337,33
413,92	3339,67
414,39	3323,00
414,85	3331,67
415,32	3217,67
415,78	3274,67
416,25	3199,67
416,72	3179,00
417,18	3243,00
417,65	3138,67
418,12	3107,33
418,58	3113,33
419,05	3079,00
419,51	3096,67
419,98	3024,33
420,45	3069,00
420,91	2999,33
421,38	2998,00
421,84	2996,33
422,31	3002,67
422,78	2976,00
423,24	2981,33
423,71	2981,33
424,17	3002,67
424,64	2946,33
425,11	2994,33
425,57	2937,00
426,04	3000,33
426,50	2915,67
426,97	2972,67
427,43	2967,33
427,90	2970,33
428,37	2874,33
428,83	2953,33
429,30	2919,33
429,76	2901,67
430,23	2903,00
430,69	3035,00
431,16	2863,67
431,62	2865,67
432,09	2964,00
432,55	2943,67
433,02	2866,33
433,48	2859,67
433,95	2895,33
434,42	2875,00
434,88	2930,00
435,35	2827,67
435,81	2906,33
436,28	2871,67
436,74	2837,33
437,21	2896,33
437,67	2881,00
438,14	2886,33
438,60	2838,33
439,07	2852,00
439,53	3053,00
440,00	2873,33
440,46	2882,00
440,93	2920,67
441,39	2828,00
441,86	2864,67
442,32	2949,33
442,79	2837,00
443,25	2872,33
443,72	2866,67
444,18	2810,00
444,64	2936,67
445,11	2875,33
445,57	2848,33
446,04	2854,33
446,50	2865,67
446,97	2847,33
447,43	2849,33
447,90	2809,67
448,36	2816,67
448,83	2869,33
449,29	2868,67
449,75	2828,00
450,22	2820,67
450,68	2798,00
451,15	2837,67
451,61	2826,00
452,08	2879,33
452,54	2805,67
453,00	2892,33
453,47	2834,67
453,93	2820,67
454,40	2838,67
454,86	2857,00
455,32	2819,67
455,79	2853,67
456,25	2879,67
456,72	2817,33
457,18	2902,67
457,64	2826,67
458,11	2826,67
458,57	2789,67
459,04	2833,33
459,50	2826,33
459,96	2841,67
460,43	2828,33
460,89	2781,33
461,36	2906,00
461,82	2874,00
462,28	2798,00
462,75	2793,00
463,21	2905,67
463,67	2816,33
464,14	2829,67
464,60	2834,33
465,06	2789,00
465,53	2815,33
465,99	2869,33
466,45	2819,33
466,92	2849,33
467,38	2844,33
467,84	2827,67
468,31	2826,67
468,77	2841,67
469,23	2826,33
469,70	2795,33
470,16	2825,33
470,62	2821,67
471,09	2789,33
471,55	2807,33
472,01	2805,00
472,48	2801,00
472,94	2810,33
473,40	2874,33
473,87	2820,00
474,33	2797,00
474,79	2817,33
475,25	2784,67
475,72	2837,67
476,18	2797,67
476,64	2847,33
477,11	2811,33
477,57	2824,67
478,03	2890,00
478,49	2828,00
478,96	2860,67
479,42	2779,67
479,88	2899,33
480,35	2843,33
480,81	2823,00
481,27	2787,67
481,73	2814,00
482,20	2834,33
482,66	2771,33
483,12	2814,67
483,58	2770,67
484,05	2818,00
484,51	2888,67
484,97	2815,00
485,43	2816,00
485,89	2750,00
486,36	2812,67
486,82	2761,67
487,28	2834,33
487,74	2778,33
488,21	2771,33
488,67	2796,33
489,13	2823,33
489,59	2812,33
490,05	2863,33
490,52	2791,67
490,98	2814,00
491,44	2781,00
491,90	2783,67
492,36	2758,33
492,83	2857,33
493,29	2826,00
493,75	2828,33
494,21	2788,67
494,67	2809,67
495,14	2795,33
495,60	2796,67
496,06	2836,00
496,52	2793,00
496,98	2813,67
497,44	2922,67
497,91	2858,33
498,37	2788,67
498,83	2827,00
499,29	2799,67
499,75	2917,33
500,21	2829,00
500,67	2797,33
501,14	2812,67
501,60	2810,00
502,06	2846,67
502,52	2827,67
502,98	2827,33
503,44	2837,00
503,90	2848,00
504,37	2819,67
504,83	2849,00
505,29	2835,00
505,75	2797,00
506,21	2829,67
506,67	2871,00
507,13	2820,00
507,59	2851,67
508,05	2858,33
508,51	2810,67
508,98	2816,00
509,44	2797,33
509,90	2809,33
510,36	2827,00
510,82	2795,33
511,28	2904,00
511,74	2907,33
512,20	2806,33
512,66	2783,33
513,12	2812,33
513,58	2863,00
514,04	2787,00
514,51	2884,67
514,97	2927,67
515,43	2787,33
515,89	2866,67
516,35	2888,00
516,81	2888,00
517,27	2959,67
517,73	2866,00
518,19	2847,67
518,65	3027,00
519,11	2833,00
519,57	2833,00
520,03	2799,33
520,49	2824,00
520,95	2847,67
521,41	2881,00
521,87	2896,67
522,33	2855,33
522,79	2815,33
523,25	2932,00
523,71	2911,67
524,17	2847,00
524,63	2937,00
525,09	2891,33
525,55	2899,00
526,01	2936,00
526,47	2878,33
526,93	2865,33
527,39	2857,33
527,85	2850,67
528,31	2892,33
528,77	2889,00
529,23	2876,33
529,69	2831,33
530,15	2901,00
530,61	2914,67
531,07	2828,67
531,53	2915,00
531,99	2892,67
532,45	2890,33
532,91	2888,33
533,37	2901,67
533,83	2873,67
534,29	2857,33
534,75	2891,33
535,21	2867,67
535,67	2895,67
536,12	2851,67
536,58	2921,00
537,04	2850,33
537,50	2919,67
537,96	2878,67
538,42	2898,00
538,88	2963,00
539,34	2934,33
539,80	3163,00
540,26	2834,00
540,72	2979,00
541,18	2908,00
541,63	2842,33
542,09	2926,33
542,55	2918,00
543,01	2871,00
543,47	3027,67
543,93	2863,33
544,39	2985,00
544,85	2937,33
545,31	2900,33
545,76	2888,33
546,22	2922,00
546,68	2903,33
547,14	2929,67
547,60	2925,00
548,06	2926,67
548,52	2884,33
548,98	2888,67
549,43	2856,33
549,89	2993,33
550,35	2886,00
550,81	2863,00
551,27	2924,00
551,73	2922,67
552,19	2993,33
552,64	2909,33
553,10	2874,33
553,56	2935,00
554,02	2892,00
554,48	2864,00
554,93	2919,00
555,39	2901,00
555,85	2980,67
556,31	2909,67
556,77	2969,00
557,23	2844,67
557,68	2920,67
558,14	2996,33
558,60	2886,33
559,06	2893,33
559,52	2879,33
559,97	2861,33
560,43	2885,33
560,89	2918,00
561,35	2892,67
561,81	2894,33
562,26	2878,00
562,72	2859,00
563,18	2895,33
563,64	2964,00
564,09	2855,00
564,55	2906,67
565,01	2902,67
565,47	2888,00
565,92	2908,67
566,38	2959,67
566,84	2890,67
567,30	2873,00
567,75	2906,00
568,21	2933,33
568,67	2856,67
569,13	2884,33
569,58	2932,67
570,04	2885,67
570,50	2912,67
570,96	2935,00
571,41	2916,00
571,87	2887,33
572,33	2899,33
572,78	2900,67
573,24	2883,00
573,70	2875,67
574,16	2911,00
574,61	2938,00
575,07	2925,33
575,53	2849,00
575,98	2900,00
576,44	2845,67
576,90	2953,67
577,36	2867,67
577,81	2884,67
578,27	2857,67
578,73	2934,00
579,18	2910,00
579,64	2863,33
580,10	2909,00
580,55	2893,33
581,01	2905,00
581,47	2884,33
581,92	2897,00
582,38	2883,67
582,84	2851,67
583,29	2887,33
583,75	2911,67
584,21	2876,00
584,66	2913,67
585,12	2859,67
585,57	3005,67
586,03	2884,00
586,49	2869,33
586,94	2870,67
587,40	2889,00
587,86	2920,33
588,31	2839,00
588,77	2914,67
589,22	2876,33
589,68	2860,33
590,14	2900,00
590,59	2922,67
591,05	2858,00
591,51	2834,33
591,96	2927,00
592,42	2876,67
592,87	2901,33
593,33	2883,67
593,78	2902,00
594,24	2869,00
594,70	2862,33
595,15	2935,67
595,61	2845,67
596,06	2864,67
596,52	2962,00
596,98	2903,33
597,43	2933,00
597,89	2901,00
598,34	2817,00
598,80	2888,33
599,25	2947,67
599,71	2854,00
600,16	2879,67
600,62	2939,67
601,08	2899,67
601,53	2919,67
601,99	2829,33
602,44	3007,33
602,90	2853,67
603,35	2859,33
603,81	2801,67
604,26	2806,00
604,72	2909,33
605,17	2858,00
605,63	2880,33
606,08	2881,67
606,54	2809,33
606,99	2872,33
607,45	2870,00
607,90	2866,67
608,36	2896,67
608,81	2852,33
609,27	2984,67
609,72	2913,67
610,18	2869,00
610,63	2830,33
611,09	2891,67
611,54	2820,00
612,00	2945,33
612,45	2877,67
612,91	2860,67
613,36	3005,67
613,82	2809,33
614,27	2809,00
614,73	2815,33
615,18	2821,00
615,64	2857,67
616,09	2851,33
616,54	2821,00
617,00	2853,67
617,45	2858,33
617,91	2901,00
618,36	2830,00
618,82	2838,33
619,27	2847,67
619,72	2902,00
620,18	2845,33
620,63	2891,00
621,09	2909,00
621,54	2843,33
622,00	2904,33
622,45	2919,67
622,90	2906,67
623,36	2834,33
623,81	2832,67
624,27	2911,00
624,72	2805,00
625,17	2835,67
625,63	2853,67
626,08	2813,00
626,54	2850,33
626,99	2866,67
627,44	2829,00
627,90	2886,33
628,35	2881,33
628,81	2781,67
629,26	2830,00
629,71	2875,67
630,17	2809,67
630,62	2858,00
631,07	2830,67
631,53	2876,67
631,98	2860,33
632,43	2905,00
632,89	2810,33
633,34	2817,33
633,79	2797,67
634,25	2814,67
634,70	2800,67
635,15	2843,33
635,61	2804,00
636,06	2779,67
636,51	2826,33
636,97	2844,00
637,42	2802,33
637,87	2879,33
638,33	2894,00
638,78	2815,33
639,23	2831,33
639,69	2795,67
640,14	2779,00
640,59	2847,33
641,05	2874,67
641,50	2777,67
641,95	2830,00
642,40	2809,00
642,86	2775,67
643,31	2816,67
643,76	2862,67
644,22	2783,67
644,67	2789,33
645,12	2813,33
645,57	2794,33
646,03	2840,00
646,48	2830,33
646,93	2840,33
647,38	2853,67
647,84	2848,00
648,29	2828,00
648,74	2783,67
649,19	2872,67
649,65	2849,33
650,10	3024,00
650,55	2792,33
651,00	2790,67
651,46	2788,33
651,91	2848,00
652,36	2777,67
652,81	2812,33
653,27	2805,67
653,72	2790,33
654,17	2803,00
654,62	2841,67
655,07	2791,00
655,53	2776,00
655,98	2855,00
656,43	2790,00
656,88	2824,67
657,33	2829,67
657,79	2843,67
658,24	2793,33
658,69	2828,00
659,14	2772,00
659,59	3031,33
660,05	2783,67
660,50	2846,67
660,95	2799,67
661,40	2772,33
661,85	2803,00
662,30	2772,67
662,76	2757,00
663,21	2823,00
663,66	2789,00
664,11	2793,67
664,56	2797,33
665,01	2772,67
665,47	2832,00
665,92	2773,67
666,37	2820,00
666,82	2807,00
667,27	2937,00
667,72	2865,33
668,17	2765,33
668,62	2810,33
669,08	2785,00
669,53	2915,00
669,98	2742,33
670,43	2755,67
670,88	2863,33
671,33	2821,00
671,78	2877,33
672,23	2925,33
672,69	2794,67
673,14	2807,67
673,59	2859,33
674,04	2958,00
674,49	2815,00
674,94	2839,33
675,39	2724,00
675,84	2762,00
676,29	2810,67
676,74	2780,33
677,19	2788,00
677,64	2774,67
678,10	2932,33
678,55	2772,33
679,00	2782,67
679,45	2809,00
679,90	2782,00
680,35	2814,67
680,80	2793,67
681,25	2731,33
681,70	2721,67
682,15	2783,67
682,60	2801,67
683,05	2831,33
683,50	2820,33
683,95	2789,33
684,40	2847,67
684,85	2821,67
685,30	2808,67
685,75	2819,67
686,20	2781,00
686,65	2768,00
687,10	2799,00
687,55	2776,67
688,00	2811,67
688,45	2785,00
688,90	2936,67
689,35	2810,00
689,80	2733,33
690,25	2780,00
690,70	2776,67
691,15	2749,33
691,60	2796,00
692,05	2748,00
692,50	2792,33
692,95	2785,00
693,40	2817,33
693,85	2808,33
694,30	2788,67
694,75	2801,00
695,20	3005,00
695,65	2800,33
696,10	2800,00
696,55	2879,33
697,00	2786,33
697,45	2765,33
697,90	2795,00
698,35	2766,67
698,80	2814,33
699,24	2828,67
699,69	2753,67
700,14	2777,67
700,59	2820,67
701,04	2828,67
701,49	2978,33
701,94	2745,67
702,39	2846,33
702,84	2767,33
703,29	2764,00
703,74	2800,67
704,19	2778,67
704,63	2766,33
705,08	2858,00
705,53	2833,33
705,98	2841,00
706,43	2751,33
706,88	2811,00
707,33	2788,67
707,78	2774,67
708,22	2800,67
708,67	2827,00
709,12	2798,33
709,57	2754,67
710,02	2779,33
710,47	2782,33
710,92	2767,00
711,37	2811,33
711,81	2791,33
712,26	2781,00
712,71	2741,67
713,16	2864,00
713,61	2778,33
714,06	2799,33
714,50	2849,67
714,95	2833,33
715,40	2782,00
715,85	2782,67
716,30	2770,00
716,75	2778,00
717,19	2747,33
717,64	2732,00
718,09	2790,33
718,54	2880,00
718,99	2742,00
719,43	2736,67
719,88	2774,33
720,33	2779,33
720,78	2758,00
721,23	2805,67
721,67	2758,67
722,12	2809,67
722,57	2776,00
723,02	2737,33
723,47	2711,67
723,91	2802,67
724,36	2726,00
724,81	2802,33
725,26	2735,33
725,70	2781,00
726,15	2758,67
726,60	2786,33
727,05	2866,00
727,49	2755,33
727,94	2855,67
728,39	2799,33
728,84	2755,67
729,28	2835,67
729,73	2749,67
730,18	2824,00
730,63	2726,33
731,07	2785,33
731,52	2790,00
731,97	2796,67
732,41	2782,67
732,86	2744,00
733,31	2812,67
733,76	2786,67
734,20	2753,00
734,65	2794,33
735,10	2789,67
735,54	2776,67
735,99	2943,00
736,44	2741,00
736,89	2791,67
737,33	2809,33
737,78	2819,00
738,23	2786,67
738,67	2772,67
739,12	2771,00
739,57	2730,33
740,01	2826,67
740,46	2810,00
740,91	2741,33
741,35	2806,67
741,80	2801,33
742,25	2775,33
742,69	2791,33
743,14	2727,33
743,59	2741,00
744,03	2777,00
744,48	2831,00
744,92	2816,00
745,37	2782,33
745,82	2817,67
746,26	2848,33
746,71	2700,00
747,16	2726,67
747,60	2727,67
748,05	2798,00
748,49	2766,33
748,94	2763,00
749,39	2800,00
749,83	2922,67
750,28	2774,67
750,73	2759,00
751,17	2723,33
751,62	2757,67
752,06	2767,00
752,51	2765,67
752,95	2871,00
753,40	2751,00
753,85	2768,00
754,29	2730,67
754,74	2758,67
755,18	2749,00
755,63	2767,33
756,07	2778,33
756,52	2826,67
756,97	2768,33
757,41	2833,33
757,86	2772,33
758,30	2776,67
758,75	2771,33
759,19	2753,00
759,64	2733,00
760,08	2765,33
760,53	2805,67
760,98	2768,00
761,42	2785,33
761,87	2822,33
762,31	2763,67
762,76	2710,33
763,20	2767,00
763,65	2814,67
764,09	2766,33
764,54	2725,00
764,98	2754,33
765,43	2795,67
765,87	2734,00
766,32	2733,00
766,76	2761,67
767,21	2776,00
767,65	2770,33
768,10	2791,67
768,54	2807,00
768,99	2762,67
769,43	2869,33
769,88	2743,00
770,32	2768,33
770,77	2749,67
771,21	2729,33
771,65	2803,33
772,10	2783,33
772,54	2791,00
772,99	2717,67
773,43	2774,33
773,88	2743,67
774,32	2706,67
774,77	2764,33
775,21	2738,67
775,65	2794,33
776,10	2768,33
776,54	2736,00
776,99	2763,33
777,43	2768,67
777,88	2779,67
778,32	2791,33
778,76	2767,33
779,21	2777,00
779,65	2913,00
780,10	2834,33
780,54	2784,00
780,99	2820,67
781,43	2795,00
781,87	2745,33
782,32	2779,67
782,76	2738,00
783,20	2772,00
783,65	2794,67
784,09	2809,33
784,54	2771,33
784,98	2756,33
785,42	2759,33
785,87	2732,00
786,31	2814,00
786,75	2826,67
787,20	2804,00
787,64	2723,67
788,09	2737,00
788,53	2797,67
788,97	2737,67
789,42	2762,67
789,86	2731,67
790,30	2769,33
790,75	2743,33
791,19	2735,33
791,63	2823,33
792,08	2761,67
792,52	2772,33
792,96	2730,67
793,41	2985,33
793,85	2823,00
794,29	2770,67
794,74	2792,00
795,18	2759,00
795,62	2731,00
796,06	2794,33
796,51	2775,67
796,95	2783,00
797,39	2748,33
797,84	2737,33
798,28	2764,33
798,72	2827,00
799,16	2794,67
799,61	2733,67
800,05	2843,33
800,49	2779,33
800,94	2735,33
801,38	2794,00
801,82	2779,33
802,26	2738,00
802,71	2819,33
803,15	2859,33
803,59	2797,67
804,03	2765,00
804,48	2765,67
804,92	2751,33
805,36	2849,67
805,80	2894,00
806,25	2861,33
806,69	2816,67
807,13	2870,33
807,57	2754,00
808,01	2774,67
808,46	2733,00
808,90	2786,33
809,34	2784,67
809,78	2745,33
810,23	2754,33
810,67	2797,00
811,11	2847,00
811,55	2949,67
811,99	2752,67
812,44	2742,33
812,88	2790,67
813,32	2865,33
813,76	2803,33
814,20	2775,00
814,64	2818,33
815,09	2790,33
815,53	2769,33
815,97	2758,67
816,41	2752,00
816,85	2759,67
817,29	2811,67
817,74	2770,67
818,18	2805,33
818,62	2757,00
819,06	2811,67
819,50	2840,33
819,94	2752,00
820,39	2796,67
820,83	2758,67
821,27	2775,67
821,71	2744,33
822,15	2838,00
822,59	2735,33
823,03	2769,00
823,47	2799,33
823,92	2729,33
824,36	2772,67
824,80	2769,67
825,24	2791,00
825,68	2797,67
826,12	2746,67
826,56	2764,33
827,00	2700,67
827,44	2768,67
827,88	2792,33
828,33	2817,00
828,77	2750,67
829,21	2794,00
829,65	2803,00
830,09	2732,00
830,53	2848,33
830,97	2766,33
831,41	2876,67
831,85	2806,67
832,29	2792,67
832,73	2724,67
833,17	2783,67
833,61	2771,00
834,05	2822,67
834,49	2804,33
834,93	2747,33
835,37	2736,67
835,82	2813,67
836,26	2756,67
836,70	2768,33
837,14	2767,33
837,58	2821,67
838,02	2747,00
838,46	2742,00
838,90	2783,00
839,34	2763,33
839,78	2852,33
840,22	2868,33
840,66	2780,00
841,10	2831,67
841,54	2717,00
841,98	2760,33
842,42	2728,33
842,86	2746,33
843,30	2791,00
843,74	2776,67
844,18	2797,33
844,62	2775,00
845,06	2743,00
845,50	2795,00
845,94	2763,00
846,37	2821,33
846,81	2737,67
847,25	2739,00
847,69	2788,00
848,13	2750,67
848,57	2753,00
849,01	2759,00
849,45	2795,67
849,89	2832,33
850,33	2802,00
850,77	2758,33
851,21	2804,67
851,65	2747,33
852,09	2779,00
852,53	2816,67
852,97	2751,67
853,40	2743,67
853,84	2799,67
854,28	2725,00
854,72	2822,67
855,16	2722,67
855,60	2739,33
856,04	2824,67
856,48	2859,33
856,92	2796,33
857,36	2795,67
857,79	2761,33
858,23	2724,67
858,67	2843,33
859,11	2705,00
859,55	2740,67
859,99	2756,33
860,43	2773,67
860,87	2787,00
861,30	2817,00
861,74	2750,33
862,18	2763,33
862,62	2795,67
863,06	2737,67
863,50	2747,33
863,94	2805,33
864,37	2747,67
864,81	2752,33
865,25	2772,33
865,69	2724,67
866,13	2752,00
866,57	2706,33
867,00	2801,67
867,44	2735,33
867,88	2795,33
868,32	2758,67
868,76	2739,33
869,19	2802,67
869,63	2782,33
870,07	2835,00
870,51	2909,33
870,95	2739,33
871,38	2771,00
871,82	2777,00
872,26	2743,33
872,70	2790,33
873,14	2795,67
873,57	2773,00
874,01	2809,67
874,45	2799,00
874,89	2752,33
875,32	2737,00
875,76	2814,00
876,20	2698,67
876,64	2792,00
877,07	2773,00
877,51	2768,67
877,95	2762,67
878,39	2773,00
878,82	2798,67
879,26	2791,33
879,70	2848,33
880,14	2741,67
880,57	2736,00
881,01	2754,67
881,45	2780,00
881,89	2810,33
882,32	2765,00
882,76	2774,33
883,20	2744,67
883,63	2742,33
884,07	2742,33
884,51	2801,00
884,94	2766,67
885,38	2795,00
885,82	2808,33
886,26	2765,00
886,69	2740,67
887,13	2836,00
887,57	2726,33
888,00	2732,00
888,44	2757,00
888,88	2760,33
889,31	2925,33
889,75	2735,67
890,19	2828,67
890,62	2759,00
891,06	2807,33
891,50	2797,00
891,93	2713,67
892,37	2745,67
892,81	2767,00
893,24	2735,67
893,68	2749,33
894,11	2791,67
894,55	2762,00
894,99	2806,00
895,42	2768,33
895,86	2738,67
896,30	2781,00
896,73	2793,67
897,17	2730,00
897,60	2751,67
898,04	2752,33
898,48	2778,00
898,91	2819,67
899,35	2732,33
899,78	2746,33
900,22	2735,33
900,66	2797,33
901,09	2815,33
901,53	2761,67
901,96	2854,00
902,40	2860,00
902,84	2747,33
903,27	2769,33
903,71	2842,33
904,14	2748,67
904,58	2785,67
905,01	2738,67
905,45	2773,00
905,88	2729,00
906,32	2833,33
906,76	2783,67
907,19	2805,67
907,63	2788,00
908,06	2765,00
908,50	2803,33
908,93	2841,67
909,37	2771,33
909,80	2728,67
910,24	2801,33
910,67	2782,67
911,11	2758,00
911,54	2754,00
911,98	2779,67
912,41	2778,67
912,85	2764,00
913,28	2790,67
913,72	2788,33
914,15	2761,67
914,59	2730,33
915,02	2736,33
915,46	2748,67
915,89	2745,00
916,33	2800,33
916,76	2743,67
917,20	2823,00
917,63	2752,00
918,07	2822,00
918,50	2742,00
918,94	2762,33
919,37	2774,00
919,81	2803,33
920,24	2805,33
920,67	2773,33
921,11	2860,00
921,54	2802,67
921,98	2754,67
922,41	2729,33
922,85	2726,67
923,28	2779,67
923,72	2840,00
924,15	2812,33
924,58	2702,00
925,02	2796,00
925,45	2737,67
925,89	2805,67
926,32	2874,67
926,75	2780,67
927,19	2803,67
927,62	2720,33
928,06	2895,33
928,49	2774,00
928,92	2736,67
929,36	2832,00
929,79	2774,33
930,23	2797,00
930,66	2816,33
931,09	2746,00
931,53	2798,67
931,96	2726,00
932,39	2843,00
932,83	2819,00
933,26	2902,67
933,70	2774,67
934,13	2804,33
934,56	2810,00
935,00	2812,00
935,43	2781,33
935,86	2731,00
936,30	2768,33
936,73	2764,33
937,16	2797,67
937,60	2744,33
938,03	2813,67
938,46	2740,33
938,90	2765,33
939,33	2803,67
939,76	2751,00
940,19	2775,00
940,63	2829,33
941,06	2880,67
941,49	2747,33
941,93	2817,67
942,36	2745,00
942,79	2765,00
943,23	2799,67
943,66	2741,00
944,09	2712,00
944,52	2792,00
944,96	2750,33
945,39	2804,67
945,82	2788,33
946,26	2782,00
946,69	2781,00
947,12	2818,67
947,55	2766,33
947,99	2783,33
948,42	2800,67
948,85	2715,00
949,28	2740,33
949,72	2723,00
950,15	2895,00
950,58	2825,33
951,01	2767,00
951,45	2762,67
951,88	2785,33
952,31	2715,00
952,74	2807,67
953,17	2755,00
953,61	2865,67
954,04	2733,67
954,47	2737,00
954,90	2744,67
955,33	2752,33
955,77	2756,67
956,20	2810,67
956,63	2725,67
957,06	2803,67
957,49	2922,67
957,93	2713,67
958,36	2779,00
958,79	2779,33
959,22	2752,67
959,65	2755,33
960,08	2762,33
960,52	2700,67
960,95	2767,33
961,38	2796,00
961,81	2795,67
962,24	2794,33
962,67	2817,33
963,11	2739,67
963,54	2778,33
963,97	2745,00
964,40	2770,00
964,83	2754,33
965,26	2728,33
965,69	2789,33
966,13	2742,00
966,56	2765,33
966,99	2808,67
967,42	2732,33
967,85	2747,67
968,28	2815,33
968,71	2982,00
969,14	2803,33
969,57	2768,67
970,01	2787,67
970,44	2734,00
970,87	2753,67
971,30	2781,33
971,73	2756,00
972,16	2764,67
972,59	2730,00
973,02	2738,00
973,45	2776,67
973,88	2784,33
974,31	2770,33
974,74	2805,33
975,17	2776,67
975,61	2742,67
976,04	2740,00
976,47	2745,00
976,90	2790,00
977,33	2743,00
977,76	2798,00
978,19	2772,67
978,62	2759,33
979,05	2748,67
979,48	2776,33
979,91	2810,00
980,34	2793,33
980,77	2751,67
981,20	2771,00
981,63	2812,67
982,06	2772,67
982,49	2762,67
982,92	2759,33
983,35	2748,67
983,78	2750,67
984,21	2812,33
984,64	2798,33
985,07	2711,33
985,50	2695,00
985,93	2766,67
986,36	2800,33
986,79	2759,67
987,22	2742,67
987,65	2794,00
988,08	2759,67
988,51	2781,00
988,94	2773,00
989,37	2771,67
989,80	2775,67
990,23	2748,00
990,66	2787,33
991,09	2766,33
991,51	2769,33
991,94	2866,33
992,37	2763,33
992,80	2733,33
993,23	2770,00
993,66	2748,00
994,09	2750,33
994,52	2787,33
994,95	2800,00
995,38	2772,00
995,81	2764,67
996,24	2712,00
996,67	2710,67
997,09	2701,00
997,52	2823,00
997,95	2810,00
998,38	2758,00
998,81	2778,33
999,24	2744,67
999,67	2842,67
1000,10	2758,00
1000,53	2765,33
1000,95	2826,67
1001,38	2742,33
1001,81	2782,67
1002,24	2802,67
1002,67	2764,00
1003,10	2774,33
1003,53	2787,00
1003,95	2796,67
1004,38	2733,00
1004,81	2775,67
1005,24	2779,33
1005,67	2827,33
1006,10	2767,00
1006,52	2727,00
1006,95	2794,33
1007,38	2773,00
1007,81	2736,67
1008,24	2731,67
1008,67	2775,00
1009,09	2734,67
1009,52	2933,00
1009,95	2805,33
1010,38	2794,67
1010,81	2790,33
1011,23	2802,33
1011,66	2805,33
1012,09	2770,67
1012,52	2798,00
1012,95	2778,33
1013,37	2803,00
1013,80	2800,00
1014,23	2732,67
1014,66	2831,33
1015,08	2707,00
1015,51	2797,33
1015,94	2734,67
1016,37	2760,00
1016,80	2721,00
1017,22	2786,33
1017,65	2756,67
1018,08	2755,67
1018,51	2762,67
1018,93	2723,67
1019,36	2911,00
1019,79	2823,00
1020,21	2797,00
1020,64	2743,00
1021,07	2775,67
1021,50	2795,33
1021,92	2786,67
1022,35	2784,67
1022,78	2769,67
1023,21	2938,33
1023,63	2810,67
1024,06	2806,33
1024,49	2801,33
1024,91	2785,00
1025,34	2791,67
1025,77	2791,67
1026,19	2735,67
1026,62	2732,67
1027,05	2872,67
1027,47	2798,00
1027,90	2792,33
1028,33	2789,00
1028,75	2792,67
1029,18	2742,67
1029,61	2888,00
1030,03	2765,33
1030,46	2769,33
1030,89	2795,00
1031,31	2837,33
1031,74	2718,67
1032,17	2786,67
1032,59	2799,67
1033,02	2750,33
1033,45	2823,67
1033,87	2752,67
1034,30	2741,00
1034,73	2788,33
1035,15	2815,33
1035,58	2756,00
1036,00	2855,00
1036,43	2757,67
1036,86	2752,00
1037,28	2778,00
1037,71	2712,33
1038,13	2799,00
1038,56	2815,67
1038,99	2808,67
1039,41	2833,00
1039,84	2856,67
1040,26	2759,33
1040,69	2770,33
1041,11	2782,67
1041,54	2746,67
1041,97	2822,67
1042,39	2831,33
1042,82	2800,67
1043,24	2810,33
1043,67	2770,00
1044,09	2822,00
1044,52	2741,00
1044,95	2765,67
1045,37	2749,67
1045,80	2727,00
1046,22	2791,67
1046,65	2785,00
1047,07	2745,67
1047,50	2788,00
1047,92	2809,67
1048,35	2746,00
1048,77	2817,67
1049,20	2804,00
1049,62	2833,67
1050,05	2764,33
1050,47	2769,33
1050,90	2789,00
1051,32	2806,00
1051,75	2831,33
1052,17	2817,67
1052,60	2774,67
1053,02	2812,00
1053,45	2713,00
1053,87	2779,67
1054,30	2711,67
1054,72	2776,33
1055,15	2763,00
1055,57	2791,00
1056,00	2793,67
1056,42	2857,00
1056,85	2822,67
1057,27	2819,67
1057,70	2784,00
1058,12	2982,00
1058,54	2732,33
1058,97	2804,67
1059,39	2801,00
1059,82	2760,00
1060,24	2763,67
1060,67	2761,67
1061,09	2811,67
1061,51	2778,67
1061,94	2763,67
1062,36	2811,33
1062,79	2843,33
1063,21	2779,00
1063,64	2764,67
1064,06	2729,00
1064,48	2831,00
1064,91	2806,67
1065,33	2759,67
1065,76	2740,67
1066,18	2707,33
1066,60	2819,00
1067,03	2782,67
1067,45	2768,67
1067,87	2785,33
1068,30	2745,67
1068,72	2859,00
1069,15	2775,67
1069,57	2758,33
1069,99	2715,33
1070,42	2813,00
1070,84	2817,33
1071,26	2826,00
1071,69	2755,33
1072,11	2811,67
1072,53	2751,67
1072,96	2725,33
1073,38	2720,67
1073,80	2807,00
1074,23	2757,00
1074,65	2723,67
1075,07	2758,00
1075,50	2760,67
1075,92	2787,00
1076,34	2747,67
1076,77	2749,33
1077,19	2773,67
1077,61	2816,33
1078,04	2753,67
1078,46	2809,00
1078,88	2850,00
1079,30	2701,00
1079,73	2786,00
1080,15	2748,67
1080,57	2749,33
1081,00	2803,33
1081,42	2773,67
1081,84	2760,33
1082,26	2796,00
1082,69	2766,67
1083,11	2766,67
1083,53	2773,67
1083,95	2785,67
1084,38	2822,67
1084,80	2769,33
1085,22	2755,67
1085,64	2820,67
1086,07	2724,67
1086,49	2750,67
1086,91	2790,00
1087,33	2735,00
1087,76	2810,33
1088,18	4165,33
1088,60	2785,00
1089,02	2731,00
1089,45	2752,00
1089,87	2756,00
1090,29	2821,67
1090,71	2771,67
1091,13	2730,00
1091,56	2772,33
1091,98	2741,67
1092,40	2742,33
1092,82	2767,67
1093,24	2754,67
1093,66	2759,67
1094,09	2767,33
1094,51	2767,33
1094,93	2747,00
1095,35	2778,00
1095,77	2739,00
1096,19	2754,67
1096,62	2792,33
1097,04	2718,33
1097,46	2776,33
1097,88	2747,33
1098,30	2791,33
1098,72	2775,00
1099,15	2805,00
1099,57	2764,67
1099,99	2745,67
1100,41	2731,67
1100,83	2763,67
1101,25	2741,67
1101,67	2766,00
1102,09	2727,00
1102,52	2752,33
1102,94	2748,67
1103,36	2773,00
1103,78	2785,00
1104,20	2753,67
1104,62	2834,00
1105,04	2705,33
1105,46	2769,33
1105,88	2765,33
1106,30	2737,67
1106,73	2769,00
1107,15	2690,67
1107,57	2705,33
1107,99	2809,00
1108,41	2718,33
1108,83	2769,33
1109,25	2788,67
1109,67	2790,67
1110,09	2690,67
1110,51	2742,67
1110,93	2687,00
1111,35	2744,00
1111,77	2709,00
1112,19	2710,33
1112,61	2691,67
1113,03	2725,33
1113,45	2708,67
1113,87	2719,67
1114,29	2760,67
1114,71	2761,67
1115,13	2717,00
1115,55	2735,67
1115,98	2725,67
1116,40	2764,33
1116,82	2774,00
1117,24	2726,33
1117,66	2714,33
1118,08	2168,67
1118,50	2179,00
1118,91	2179,00
1119,33	2178,33
>>>>>End Processed Spectral Data<<<<<
