SpectraSuite Data File
++++++++++++++++++++++++++++++++++++
Date: Wed May 16 13:46:31 EEST 2012
User: OO Maya
Dark Spectrum Present: No
Reference Spectrum Present: No
Number of Sampled Component Spectra: 1
Spectrometers: MAYP11278
Integration Time (usec): 1000000 (MAYP11278)
Spectra Averaged: 3 (MAYP11278)
Boxcar Smoothing: 0 (MAYP11278)
Correct for Electrical Dark: No (MAYP11278)
Strobe/Lamp Enabled: No (MAYP11278)
Correct for Detector Non-linearity: No (MAYP11278)
Correct for Stray Light: No (MAYP11278)
Number of Pixels in Processed Spectrum: 2068
>>>>>Begin Processed Spectral Data<<<<<
188,05	2282,00
188,53	2204,67
189,01	2174,00
189,49	2171,33
189,96	3081,33
190,44	3128,67
190,92	3111,00
191,40	3129,33
191,88	3204,33
192,36	3119,00
192,83	3088,67
193,31	3061,67
193,79	3106,33
194,27	3089,33
194,75	3173,67
195,23	3114,00
195,70	3179,67
196,18	3107,67
196,66	3114,67
197,14	3321,67
197,62	3137,67
198,09	3069,67
198,57	3095,33
199,05	3077,33
199,53	3162,67
200,01	3198,67
200,48	3106,00
200,96	3110,33
201,44	3175,67
201,92	3203,33
202,39	3216,67
202,87	3090,33
203,35	3144,33
203,83	3085,00
204,31	3197,33
204,78	3227,00
205,26	3111,67
205,74	3096,33
206,22	3241,00
206,69	3106,33
207,17	3173,33
207,65	3329,67
208,13	3155,00
208,60	3190,33
209,08	3127,00
209,56	3205,33
210,04	3175,33
210,51	3136,33
210,99	3139,00
211,47	3182,67
211,94	3165,67
212,42	3115,33
212,90	3265,67
213,38	3205,00
213,85	3139,00
214,33	3300,67
214,81	3163,67
215,29	3289,67
215,76	3169,00
216,24	3217,67
216,72	3230,00
217,19	3218,00
217,67	3157,67
218,15	3147,00
218,62	3234,33
219,10	3100,33
219,58	3105,33
220,05	3134,67
220,53	3172,33
221,01	3258,00
221,49	3150,67
221,96	3210,33
222,44	3120,00
222,92	3228,00
223,39	3131,33
223,87	3234,67
224,35	3178,67
224,82	3150,67
225,30	3113,67
225,78	3150,67
226,25	3128,00
226,73	3190,33
227,21	3219,33
227,68	3151,00
228,16	3190,00
228,63	3195,00
229,11	3226,00
229,59	3149,67
230,06	3157,33
230,54	3152,67
231,02	3224,33
231,49	3267,67
231,97	3174,00
232,45	3187,00
232,92	3104,00
233,40	3179,33
233,87	3187,00
234,35	3430,00
234,83	3202,33
235,30	3138,67
235,78	3145,33
236,25	3088,33
236,73	3234,00
237,21	3350,00
237,68	3126,00
238,16	3194,33
238,63	3201,00
239,11	3178,67
239,59	3140,00
240,06	3099,67
240,54	3227,33
241,01	3244,33
241,49	3178,00
241,96	3162,67
242,44	3238,67
242,92	3253,67
243,39	3105,33
243,87	3124,67
244,34	3242,33
244,82	3283,33
245,29	3159,00
245,77	3269,33
246,24	3239,00
246,72	3123,00
247,20	3184,00
247,67	3174,00
248,15	3194,67
248,62	3217,33
249,10	3077,67
249,57	3203,33
250,05	3227,33
250,52	3213,00
251,00	3263,00
251,47	3168,67
251,95	3307,33
252,42	3275,00
252,90	3143,33
253,37	3257,00
253,85	3193,67
254,32	3173,00
254,80	3194,00
255,27	3231,67
255,75	3232,33
256,22	3143,33
256,70	3221,33
257,17	3217,00
257,65	3235,00
258,12	3387,67
258,60	3197,67
259,07	3158,00
259,55	3202,67
260,02	3256,67
260,50	3293,67
260,97	3163,00
261,45	3147,00
261,92	3299,67
262,40	3141,33
262,87	3195,33
263,35	3177,00
263,82	3094,00
264,30	3240,33
264,77	3254,00
265,25	3170,33
265,72	3223,00
266,19	3210,67
266,67	3244,33
267,14	3169,00
267,62	3179,00
268,09	3194,33
268,57	3206,00
269,04	3104,33
269,51	3154,00
269,99	3143,33
270,46	3228,00
270,94	3271,67
271,41	3173,00
271,89	3182,67
272,36	3109,00
272,83	3115,67
273,31	3047,67
273,78	3210,00
274,26	3455,00
274,73	3239,67
275,20	3227,67
275,68	3149,33
276,15	3176,33
276,63	3226,00
277,10	3223,67
277,57	3127,67
278,05	3154,67
278,52	3086,67
279,00	3507,67
279,47	3141,67
279,94	3148,33
280,42	3463,67
280,89	3269,33
281,36	3461,67
281,84	3163,00
282,31	3289,33
282,78	3168,00
283,26	3185,67
283,73	3235,67
284,21	3143,33
284,68	3133,67
285,15	3236,33
285,63	3195,67
286,10	3215,33
286,57	3193,00
287,05	3111,67
287,52	3208,33
287,99	3296,33
288,47	3170,33
288,94	3222,33
289,41	3076,00
289,89	3277,00
290,36	3123,67
290,83	3210,67
291,30	3162,00
291,78	3237,33
292,25	3353,00
292,72	3133,33
293,20	3267,00
293,67	3167,33
294,14	3241,67
294,62	3225,33
295,09	3138,33
295,56	3187,67
296,03	3197,00
296,51	3315,00
296,98	3308,67
297,45	3260,33
297,93	3230,67
298,40	3250,00
298,87	3167,00
299,34	3296,33
299,82	3192,00
300,29	3228,00
300,76	3149,67
301,23	3267,33
301,71	3243,00
302,18	3264,33
302,65	3135,33
303,12	3234,67
303,60	3257,67
304,07	3118,67
304,54	3155,33
305,01	3138,00
305,49	3192,00
305,96	3210,33
306,43	3221,67
306,90	3227,33
307,38	3180,33
307,85	3139,67
308,32	3215,67
308,79	3159,00
309,27	3268,00
309,74	3269,67
310,21	3241,00
310,68	3206,67
311,15	3224,00
311,63	3171,33
312,10	3255,33
312,57	3183,33
313,04	3346,00
313,51	3144,00
313,99	3183,33
314,46	3203,33
314,93	3147,67
315,40	3139,67
315,87	3270,33
316,34	3249,67
316,82	3224,33
317,29	3225,33
317,76	3197,67
318,23	3401,33
318,70	3186,33
319,17	3189,33
319,65	3113,00
320,12	3240,67
320,59	3298,00
321,06	3270,67
321,53	3184,33
322,00	3112,67
322,48	3121,67
322,95	3339,33
323,42	3160,00
323,89	3368,00
324,36	3129,67
324,83	3192,00
325,30	3204,33
325,78	3158,33
326,25	3182,33
326,72	3161,33
327,19	3222,67
327,66	3220,00
328,13	3219,33
328,60	3224,67
329,07	3194,00
329,54	3172,33
330,02	3157,33
330,49	3154,00
330,96	3255,00
331,43	3246,33
331,90	3356,00
332,37	3149,00
332,84	3364,00
333,31	3243,67
333,78	3220,00
334,25	3290,67
334,72	3218,00
335,20	3239,00
335,67	3492,33
336,14	3144,00
336,61	3186,00
337,08	3162,33
337,55	3210,00
338,02	3169,00
338,49	3195,00
338,96	3330,33
339,43	3268,33
339,90	3127,33
340,37	3135,67
340,84	3127,33
341,31	3245,00
341,78	3261,00
342,25	3172,67
342,72	3222,00
343,19	3259,00
343,67	3217,00
344,14	3164,33
344,61	3203,67
345,08	3150,00
345,55	3199,33
346,02	3269,00
346,49	3162,67
346,96	3157,67
347,43	3315,33
347,90	3178,67
348,37	3296,00
348,84	3223,33
349,31	3105,67
349,78	3224,33
350,25	3264,00
350,72	3208,00
351,19	3180,33
351,66	3246,67
352,13	3338,33
352,60	3232,00
353,07	3177,67
353,54	3207,33
354,01	3232,33
354,48	3245,33
354,94	3247,33
355,41	3205,33
355,88	3326,67
356,35	3146,33
356,82	3313,33
357,29	3152,00
357,76	3358,33
358,23	3280,67
358,70	3114,00
359,17	3149,67
359,64	3175,33
360,11	3151,33
360,58	3277,33
361,05	3304,00
361,52	3198,67
361,99	3195,67
362,46	3200,00
362,93	3186,33
363,39	3208,33
363,86	3384,00
364,33	3252,33
364,80	3156,33
365,27	3236,67
365,74	3176,67
366,21	3139,33
366,68	3217,67
367,15	3206,00
367,62	3204,67
368,09	3120,67
368,55	3140,33
369,02	3261,00
369,49	3128,33
369,96	3278,33
370,43	3227,00
370,90	3171,00
371,37	3177,67
371,84	3245,67
372,31	3184,00
372,77	3111,00
373,24	3185,00
373,71	3229,00
374,18	3109,33
374,65	3161,67
375,12	3221,00
375,59	3101,00
376,05	3294,33
376,52	3192,00
376,99	3128,33
377,46	3117,33
377,93	3214,33
378,40	3214,33
378,86	3235,33
379,33	3209,00
379,80	3189,67
380,27	3242,33
380,74	3310,67
381,21	3194,33
381,67	3317,67
382,14	3312,00
382,61	3123,67
383,08	3210,33
383,55	3194,00
384,02	3280,00
384,48	3213,67
384,95	3624,00
385,42	3218,67
385,89	3180,33
386,36	3187,33
386,82	3325,00
387,29	3151,67
387,76	3121,67
388,23	3270,33
388,69	3244,67
389,16	3297,67
389,63	3161,67
390,10	3238,33
390,57	3207,00
391,03	3240,33
391,50	3256,67
391,97	3252,33
392,44	3246,67
392,90	3194,33
393,37	3164,00
393,84	3399,67
394,31	3224,33
394,77	3287,00
395,24	3158,00
395,71	3249,67
396,18	3592,33
396,64	3125,33
397,11	3241,33
397,58	3261,67
398,05	3141,67
398,51	3188,67
398,98	3180,00
399,45	3157,33
399,92	3271,33
400,38	3151,67
400,85	3214,00
401,32	3172,67
401,78	3243,67
402,25	3229,00
402,72	3208,33
403,18	3151,33
403,65	3307,00
404,12	3200,00
404,59	3289,00
405,05	3336,33
405,52	3290,67
405,99	3138,67
406,45	3255,67
406,92	3226,33
407,39	3349,33
407,85	3199,67
408,32	3236,67
408,79	3240,67
409,25	3126,67
409,72	3290,00
410,19	3155,67
410,65	3270,00
411,12	3153,67
411,59	3287,00
412,05	3134,00
412,52	3105,33
412,99	3232,33
413,45	3186,33
413,92	3229,33
414,39	3253,00
414,85	3341,00
415,32	3209,00
415,78	3335,00
416,25	3233,00
416,72	3208,00
417,18	3355,00
417,65	3225,00
418,12	3205,67
418,58	3226,33
419,05	3221,67
419,51	3275,33
419,98	3162,33
420,45	3258,33
420,91	3163,67
421,38	3206,33
421,84	3169,00
422,31	3245,33
422,78	3188,33
423,24	3194,33
423,71	3242,67
424,17	3264,00
424,64	3202,00
425,11	3258,67
425,57	3197,00
426,04	3292,00
426,50	3195,33
426,97	3296,00
427,43	3257,67
427,90	3273,67
428,37	3121,00
428,83	3274,33
429,30	3239,67
429,76	3199,33
430,23	3224,67
430,69	3462,33
431,16	3105,33
431,62	3179,33
432,09	3317,67
432,55	3294,67
433,02	3178,67
433,48	3182,67
433,95	3214,33
434,42	3183,33
434,88	3262,67
435,35	3123,33
435,81	3280,00
436,28	3215,33
436,74	3124,00
437,21	3281,67
437,67	3233,00
438,14	3212,67
438,60	3168,00
439,07	3203,00
439,53	3537,00
440,00	3234,00
440,46	3280,67
440,93	3280,00
441,39	3134,67
441,86	3178,33
442,32	3393,67
442,79	3162,00
443,25	3211,33
443,72	3199,67
444,18	3136,00
444,64	3340,67
445,11	3255,67
445,57	3214,67
446,04	3212,67
446,50	3236,33
446,97	3199,33
447,43	3212,00
447,90	3180,33
448,36	3163,67
448,83	3252,67
449,29	3236,33
449,75	3192,33
450,22	3149,33
450,68	3167,00
451,15	3177,67
451,61	3232,67
452,08	3265,33
452,54	3150,67
453,00	3301,67
453,47	3197,33
453,93	3180,67
454,40	3218,67
454,86	3254,33
455,32	3175,33
455,79	3217,00
456,25	3263,67
456,72	3163,67
457,18	3289,33
457,64	3196,00
458,11	3202,67
458,57	3134,33
459,04	3215,33
459,50	3212,67
459,96	3208,67
460,43	3185,00
460,89	3140,67
461,36	3298,33
461,82	3265,00
462,28	3161,33
462,75	3101,33
463,21	3274,00
463,67	3185,00
464,14	3188,33
464,60	3222,67
465,06	3125,00
465,53	3165,67
465,99	3266,67
466,45	3198,67
466,92	3225,67
467,38	3249,67
467,84	3181,33
468,31	3193,33
468,77	3244,00
469,23	3182,33
469,70	3114,33
470,16	3218,33
470,62	3209,00
471,09	3168,33
471,55	3167,00
472,01	3155,33
472,48	3168,00
472,94	3161,67
473,40	3275,33
473,87	3181,67
474,33	3138,67
474,79	3171,00
475,25	3119,00
475,72	3205,00
476,18	3181,33
476,64	3210,67
477,11	3173,00
477,57	3183,00
478,03	3285,67
478,49	3175,33
478,96	3249,33
479,42	3127,00
479,88	3283,67
480,35	3224,00
480,81	3180,33
481,27	3130,33
481,73	3147,33
482,20	3173,67
482,66	3104,33
483,12	3180,67
483,58	3088,67
484,05	3151,00
484,51	3293,33
484,97	3186,33
485,43	3172,33
485,89	3078,00
486,36	3165,00
486,82	3067,33
487,28	3201,00
487,74	3103,00
488,21	3090,33
488,67	3127,00
489,13	3168,00
489,59	3162,67
490,05	3228,00
490,52	3098,33
490,98	3176,67
491,44	3085,33
491,90	3113,67
492,36	3046,00
492,83	3203,00
493,29	3181,33
493,75	3174,67
494,21	3100,00
494,67	3144,33
495,14	3129,00
495,60	3104,00
496,06	3185,00
496,52	3117,00
496,98	3147,00
497,44	3292,67
497,91	3227,67
498,37	3119,67
498,83	3181,00
499,29	3122,33
499,75	3336,00
500,21	3172,67
500,67	3104,00
501,14	3159,67
501,60	3129,67
502,06	3193,33
502,52	3141,33
502,98	3161,00
503,44	3153,33
503,90	3193,33
504,37	3124,00
504,83	3202,33
505,29	3173,00
505,75	3112,33
506,21	3153,33
506,67	3220,33
507,13	3138,67
507,59	3219,00
508,05	3183,33
508,51	3110,00
508,98	3137,33
509,44	3058,67
509,90	3115,00
510,36	3154,00
510,82	3104,33
511,28	3233,00
511,74	3232,00
512,20	3086,33
512,66	3055,00
513,12	3119,67
513,58	3188,00
514,04	3057,33
514,51	3234,00
514,97	3299,33
515,43	3051,00
515,89	3165,00
516,35	3232,33
516,81	3212,33
517,27	3367,00
517,73	3178,67
518,19	3162,00
518,65	3441,33
519,11	3141,00
519,57	3114,67
520,03	3086,00
520,49	3099,67
520,95	3176,67
521,41	3190,00
521,87	3210,00
522,33	3156,67
522,79	3067,67
523,25	3287,33
523,71	3232,00
524,17	3136,33
524,63	3275,33
525,09	3191,33
525,55	3224,00
526,01	3258,00
526,47	3175,00
526,93	3152,67
527,39	3141,67
527,85	3142,67
528,31	3196,33
528,77	3209,67
529,23	3145,67
529,69	3096,67
530,15	3202,33
530,61	3198,00
531,07	3080,00
531,53	3225,00
531,99	3186,00
532,45	3141,33
532,91	3141,67
533,37	3169,67
533,83	3139,00
534,29	3070,67
534,75	3163,33
535,21	3128,67
535,67	3165,00
536,12	3124,67
536,58	3195,33
537,04	3093,00
537,50	3203,67
537,96	3146,67
538,42	3163,67
538,88	3281,67
539,34	3198,67
539,80	3590,00
540,26	3061,33
540,72	3296,33
541,18	3179,67
541,63	3078,67
542,09	3167,00
542,55	3189,67
543,01	3116,67
543,47	3366,33
543,93	3106,33
544,39	3310,67
544,85	3224,67
545,31	3144,67
545,76	3134,67
546,22	3227,67
546,68	3172,00
547,14	3187,00
547,60	3208,67
548,06	3167,00
548,52	3148,33
548,98	3143,33
549,43	3092,33
549,89	3339,00
550,35	3127,00
550,81	3077,33
551,27	3180,33
551,73	3155,33
552,19	3295,00
552,64	3175,33
553,10	3085,33
553,56	3200,33
554,02	3136,00
554,48	3084,67
554,93	3181,33
555,39	3175,67
555,85	3297,33
556,31	3160,33
556,77	3247,00
557,23	3043,00
557,68	3178,33
558,14	3337,00
558,60	3137,67
559,06	3160,00
559,52	3091,33
559,97	3111,33
560,43	3109,00
560,89	3147,67
561,35	3147,33
561,81	3166,33
562,26	3130,00
562,72	3113,00
563,18	3176,33
563,64	3243,33
564,09	3085,00
564,55	3193,33
565,01	3126,00
565,47	3122,67
565,92	3169,33
566,38	3232,00
566,84	3142,00
567,30	3111,00
567,75	3178,33
568,21	3221,33
568,67	3145,67
569,13	3161,00
569,58	3212,67
570,04	3147,33
570,50	3156,67
570,96	3208,33
571,41	3206,00
571,87	3160,33
572,33	3168,67
572,78	3189,33
573,24	3107,00
573,70	3129,67
574,16	3156,33
574,61	3263,00
575,07	3236,67
575,53	3091,67
575,98	3176,00
576,44	3027,00
576,90	3251,00
577,36	3129,67
577,81	3131,67
578,27	3090,00
578,73	3244,67
579,18	3151,33
579,64	3125,00
580,10	3171,33
580,55	3162,00
581,01	3165,33
581,47	3164,33
581,92	3171,00
582,38	3149,00
582,84	3082,00
583,29	3168,67
583,75	3164,67
584,21	3143,67
584,66	3218,67
585,12	3125,00
585,57	3371,00
586,03	3141,00
586,49	3135,00
586,94	3141,67
587,40	3160,00
587,86	3241,67
588,31	3085,00
588,77	3213,67
589,22	3165,00
589,68	3106,67
590,14	3206,00
590,59	3209,33
591,05	3117,67
591,51	3057,00
591,96	3258,00
592,42	3121,33
592,87	3191,00
593,33	3149,67
593,78	3235,33
594,24	3155,33
594,70	3148,00
595,15	3258,33
595,61	3130,33
596,06	3114,00
596,52	3273,33
596,98	3208,33
597,43	3256,00
597,89	3156,33
598,34	3069,33
598,80	3149,00
599,25	3263,33
599,71	3125,67
600,16	3180,00
600,62	3259,00
601,08	3188,33
601,53	3228,33
601,99	3044,67
602,44	3392,67
602,90	3136,33
603,35	3152,00
603,81	3066,67
604,26	3049,67
604,72	3221,00
605,17	3147,67
605,63	3189,00
606,08	3175,33
606,54	3061,67
606,99	3163,33
607,45	3129,00
607,90	3128,33
608,36	3207,00
608,81	3161,00
609,27	3346,33
609,72	3225,67
610,18	3171,33
610,63	3112,33
611,09	3176,00
611,54	3086,00
612,00	3284,00
612,45	3193,33
612,91	3179,67
613,36	3403,33
613,82	3087,67
614,27	3057,33
614,73	3069,33
615,18	3069,67
615,64	3140,33
616,09	3167,33
616,54	3085,33
617,00	3131,00
617,45	3152,67
617,91	3204,33
618,36	3104,67
618,82	3113,33
619,27	3133,67
619,72	3204,33
620,18	3137,67
620,63	3207,67
621,09	3243,00
621,54	3134,67
622,00	3232,33
622,45	3288,33
622,90	3222,67
623,36	3112,33
623,81	3091,33
624,27	3228,00
624,72	3083,67
625,17	3137,67
625,63	3162,67
626,08	3117,67
626,54	3143,00
626,99	3203,67
627,44	3106,67
627,90	3216,00
628,35	3208,33
628,81	3042,33
629,26	3169,00
629,71	3164,67
630,17	3113,67
630,62	3193,00
631,07	3147,00
631,53	3183,33
631,98	3179,33
632,43	3254,00
632,89	3133,00
633,34	3119,00
633,79	3120,33
634,25	3113,67
634,70	3091,33
635,15	3114,67
635,61	3113,33
636,06	3068,67
636,51	3162,33
636,97	3139,67
637,42	3093,67
637,87	3200,00
638,33	3224,33
638,78	3120,67
639,23	3134,67
639,69	3092,33
640,14	3061,33
640,59	3183,00
641,05	3229,33
641,50	3070,67
641,95	3119,00
642,40	3102,33
642,86	3068,00
643,31	3111,67
643,76	3182,67
644,22	3112,33
644,67	3096,33
645,12	3120,67
645,57	3089,33
646,03	3181,00
646,48	3149,00
646,93	3164,00
647,38	3188,67
647,84	3177,00
648,29	3181,33
648,74	3085,67
649,19	3245,33
649,65	3176,33
650,10	3476,67
650,55	3082,67
651,00	3105,33
651,46	3110,33
651,91	3148,67
652,36	3082,33
652,81	3141,00
653,27	3124,67
653,72	3106,33
654,17	3143,33
654,62	3161,33
655,07	3103,00
655,53	3075,00
655,98	3208,00
656,43	3117,33
656,88	3152,67
657,33	3162,00
657,79	3189,33
658,24	3109,00
658,69	3167,00
659,14	3073,67
659,59	3484,00
660,05	3107,00
660,50	3217,33
660,95	3134,33
661,40	3088,33
661,85	3127,00
662,30	3083,00
662,76	3055,00
663,21	3180,33
663,66	3106,00
664,11	3115,33
664,56	3124,00
665,01	3052,00
665,47	3146,67
665,92	3104,00
666,37	3165,00
666,82	3161,67
667,27	3364,67
667,72	3261,67
668,17	3098,00
668,62	3169,33
669,08	3084,67
669,53	3325,67
669,98	3039,67
670,43	3077,33
670,88	3227,67
671,33	3160,00
671,78	3282,67
672,23	3359,00
672,69	3148,67
673,14	3153,67
673,59	3226,67
674,04	3416,33
674,49	3172,00
674,94	3163,67
675,39	3062,33
675,84	3061,00
676,29	3136,67
676,74	3128,00
677,19	3119,33
677,64	3137,33
678,10	3384,00
678,55	3099,67
679,00	3123,67
679,45	3154,33
679,90	3118,00
680,35	3147,67
680,80	3141,00
681,25	3034,33
681,70	3011,67
682,15	3122,33
682,60	3146,67
683,05	3186,33
683,50	3165,33
683,95	3165,67
684,40	3235,33
684,85	3172,67
685,30	3157,00
685,75	3182,67
686,20	3138,00
686,65	3085,67
687,10	3161,67
687,55	3100,33
688,00	3147,00
688,45	3142,00
688,90	3388,00
689,35	3205,00
689,80	3041,33
690,25	3140,33
690,70	3104,33
691,15	3065,33
691,60	3144,33
692,05	3048,67
692,50	3137,00
692,95	3126,67
693,40	3202,33
693,85	3183,00
694,30	3154,33
694,75	3163,00
695,20	3549,67
695,65	3158,67
696,10	3157,00
696,55	3289,33
697,00	3141,33
697,45	3102,33
697,90	3158,33
698,35	3101,00
698,80	3211,33
699,24	3218,00
699,69	3104,67
700,14	3118,00
700,59	3199,00
701,04	3211,33
701,49	3485,67
701,94	3063,33
702,39	3255,33
702,84	3121,00
703,29	3107,33
703,74	3159,00
704,19	3117,00
704,63	3108,33
705,08	3251,00
705,53	3213,33
705,98	3218,00
706,43	3073,33
706,88	3194,33
707,33	3135,33
707,78	3123,00
708,22	3183,00
708,67	3206,00
709,12	3148,00
709,57	3118,67
710,02	3150,67
710,47	3142,00
710,92	3086,67
711,37	3187,00
711,81	3145,33
712,26	3153,00
712,71	3094,33
713,16	3334,33
713,61	3129,33
714,06	3162,33
714,50	3246,33
714,95	3218,33
715,40	3140,00
715,85	3169,33
716,30	3122,00
716,75	3122,33
717,19	3065,67
717,64	3048,33
718,09	3193,33
718,54	3278,67
718,99	3074,67
719,43	3069,33
719,88	3163,00
720,33	3146,00
720,78	3108,00
721,23	3165,33
721,67	3108,00
722,12	3174,33
722,57	3136,33
723,02	3061,67
723,47	3044,33
723,91	3158,33
724,36	3046,33
724,81	3183,67
725,26	3049,00
725,70	3121,67
726,15	3132,33
726,60	3127,67
727,05	3268,67
727,49	3074,33
727,94	3243,33
728,39	3178,00
728,84	3104,67
729,28	3258,00
729,73	3110,00
730,18	3213,00
730,63	3080,67
731,07	3160,00
731,52	3183,00
731,97	3156,33
732,41	3161,67
732,86	3075,33
733,31	3211,33
733,76	3162,33
734,20	3065,67
734,65	3179,67
735,10	3187,67
735,54	3147,00
735,99	3396,33
736,44	3104,67
736,89	3170,67
737,33	3188,00
737,78	3194,00
738,23	3127,67
738,67	3106,00
739,12	3170,00
739,57	3072,00
740,01	3224,67
740,46	3172,67
740,91	3096,67
741,35	3196,33
741,80	3185,67
742,25	3143,33
742,69	3159,67
743,14	3090,67
743,59	3091,33
744,03	3132,00
744,48	3226,33
744,92	3198,67
745,37	3172,00
745,82	3203,00
746,26	3284,00
746,71	2991,67
747,16	3076,00
747,60	3067,67
748,05	3184,33
748,49	3138,33
748,94	3129,33
749,39	3168,33
749,83	3392,67
750,28	3162,00
750,73	3129,33
751,17	3052,00
751,62	3127,33
752,06	3107,33
752,51	3135,00
752,95	3303,67
753,40	3107,00
753,85	3120,67
754,29	3083,33
754,74	3115,33
755,18	3107,33
755,63	3120,67
756,07	3153,67
756,52	3216,00
756,97	3108,00
757,41	3249,00
757,86	3140,67
758,30	3124,67
758,75	3130,67
759,19	3108,67
759,64	3085,67
760,08	3121,67
760,53	3153,67
760,98	3147,33
761,42	3186,00
761,87	3241,00
762,31	3126,00
762,76	3048,67
763,20	3122,33
763,65	3205,33
764,09	3144,67
764,54	3098,67
764,98	3112,00
765,43	3165,33
765,87	3073,00
766,32	3060,33
766,76	3107,67
767,21	3139,67
767,65	3154,00
768,10	3164,33
768,54	3204,00
768,99	3134,00
769,43	3293,67
769,88	3073,00
770,32	3125,33
770,77	3103,00
771,21	3055,67
771,65	3175,00
772,10	3164,67
772,54	3156,67
772,99	3065,00
773,43	3110,00
773,88	3134,33
774,32	3035,33
774,77	3119,67
775,21	3103,67
775,65	3163,67
776,10	3137,33
776,54	3090,00
776,99	3103,33
777,43	3103,67
777,88	3182,00
778,32	3187,33
778,76	3103,67
779,21	3163,33
779,65	3374,00
780,10	3270,00
780,54	3130,67
780,99	3195,00
781,43	3161,00
781,87	3100,33
782,32	3142,33
782,76	3074,00
783,20	3127,33
783,65	3192,67
784,09	3224,67
784,54	3145,33
784,98	3116,33
785,42	3122,67
785,87	3070,33
786,31	3198,33
786,75	3183,67
787,20	3233,67
787,64	3079,00
788,09	3105,00
788,53	3156,00
788,97	3065,67
789,42	3131,00
789,86	3089,67
790,30	3133,67
790,75	3079,00
791,19	3099,33
791,63	3250,67
792,08	3121,33
792,52	3138,67
792,96	3103,33
793,41	3490,67
793,85	3230,00
794,29	3178,67
794,74	3169,33
795,18	3128,00
795,62	3076,67
796,06	3166,67
796,51	3128,00
796,95	3144,67
797,39	3097,33
797,84	3069,33
798,28	3134,67
798,72	3249,33
799,16	3160,00
799,61	3064,33
800,05	3283,00
800,49	3160,00
800,94	3097,00
801,38	3162,33
801,82	3135,00
802,26	3085,33
802,71	3215,67
803,15	3269,00
803,59	3212,67
804,03	3147,00
804,48	3127,00
804,92	3092,67
805,36	3273,67
805,80	3316,67
806,25	3312,00
806,69	3207,33
807,13	3322,33
807,57	3105,33
808,01	3145,00
808,46	3093,33
808,90	3170,00
809,34	3148,00
809,78	3123,00
810,23	3085,33
810,67	3172,67
811,11	3265,00
811,55	3428,67
811,99	3125,67
812,44	3102,00
812,88	3166,00
813,32	3272,67
813,76	3186,00
814,20	3155,00
814,64	3221,33
815,09	3196,67
815,53	3174,67
815,97	3094,00
816,41	3108,33
816,85	3102,67
817,29	3199,00
817,74	3126,00
818,18	3234,00
818,62	3097,00
819,06	3186,67
819,50	3225,33
819,94	3128,33
820,39	3181,00
820,83	3101,67
821,27	3161,00
821,71	3097,00
822,15	3260,33
822,59	3083,67
823,03	3157,67
823,47	3173,00
823,92	3084,33
824,36	3151,33
824,80	3150,00
825,24	3149,00
825,68	3160,00
826,12	3082,67
826,56	3118,67
827,00	3031,00
827,44	3145,00
827,88	3202,67
828,33	3249,33
828,77	3086,00
829,21	3213,00
829,65	3180,67
830,09	3095,67
830,53	3290,00
830,97	3116,67
831,41	3343,33
831,85	3209,67
832,29	3195,33
832,73	3071,67
833,17	3141,33
833,61	3141,00
834,05	3221,00
834,49	3223,67
834,93	3118,00
835,37	3111,00
835,82	3216,00
836,26	3114,00
836,70	3155,67
837,14	3118,33
837,58	3225,67
838,02	3096,33
838,46	3094,67
838,90	3169,67
839,34	3134,33
839,78	3283,67
840,22	3323,33
840,66	3178,67
841,10	3254,00
841,54	3043,33
841,98	3109,67
842,42	3075,67
842,86	3101,33
843,30	3181,33
843,74	3131,33
844,18	3187,00
844,62	3139,00
845,06	3084,33
845,50	3190,33
845,94	3122,67
846,37	3199,00
846,81	3088,33
847,25	3105,67
847,69	3155,00
848,13	3103,67
848,57	3122,33
849,01	3116,33
849,45	3186,33
849,89	3231,33
850,33	3197,00
850,77	3139,33
851,21	3226,67
851,65	3085,33
852,09	3176,00
852,53	3196,67
852,97	3111,00
853,40	3090,67
853,84	3197,00
854,28	3058,33
854,72	3204,67
855,16	3044,33
855,60	3106,67
856,04	3213,33
856,48	3255,67
856,92	3167,00
857,36	3175,33
857,79	3148,33
858,23	3082,33
858,67	3241,33
859,11	3032,33
859,55	3101,33
859,99	3109,33
860,43	3101,33
860,87	3135,67
861,30	3208,00
861,74	3114,00
862,18	3130,00
862,62	3154,00
863,06	3093,67
863,50	3114,33
863,94	3189,33
864,37	3096,33
864,81	3140,33
865,25	3145,33
865,69	3066,33
866,13	3130,67
866,57	3036,67
867,00	3194,00
867,44	3072,67
867,88	3169,00
868,32	3119,00
868,76	3096,67
869,19	3164,33
869,63	3122,67
870,07	3248,33
870,51	3361,33
870,95	3078,67
871,38	3141,67
871,82	3138,00
872,26	3109,00
872,70	3148,67
873,14	3188,00
873,57	3112,67
874,01	3201,33
874,45	3203,33
874,89	3116,00
875,32	3076,33
875,76	3240,00
876,20	3024,67
876,64	3178,33
877,07	3126,00
877,51	3158,33
877,95	3139,33
878,39	3133,67
878,82	3153,33
879,26	3150,67
879,70	3261,67
880,14	3103,67
880,57	3076,67
881,01	3115,67
881,45	3144,33
881,89	3195,00
882,32	3133,67
882,76	3113,67
883,20	3119,33
883,63	3134,00
884,07	3080,00
884,51	3193,33
884,94	3133,33
885,38	3175,67
885,82	3202,67
886,26	3104,00
886,69	3110,00
887,13	3264,00
887,57	3075,00
888,00	3102,33
888,44	3137,33
888,88	3106,00
889,31	3402,33
889,75	3075,00
890,19	3201,67
890,62	3099,67
891,06	3192,33
891,50	3181,67
891,93	3052,67
892,37	3098,67
892,81	3113,33
893,24	3066,67
893,68	3115,00
894,11	3155,00
894,55	3105,33
894,99	3191,67
895,42	3099,67
895,86	3079,33
896,30	3169,00
896,73	3190,67
897,17	3092,00
897,60	3094,33
898,04	3107,00
898,48	3136,00
898,91	3220,00
899,35	3076,00
899,78	3103,33
900,22	3110,67
900,66	3184,00
901,09	3160,00
901,53	3104,00
901,96	3287,33
902,40	3299,67
902,84	3095,00
903,27	3114,33
903,71	3261,00
904,14	3088,33
904,58	3162,33
905,01	3095,00
905,45	3125,67
905,88	3062,67
906,32	3254,00
906,76	3117,00
907,19	3201,67
907,63	3168,00
908,06	3122,00
908,50	3176,33
908,93	3265,67
909,37	3139,00
909,80	3043,33
910,24	3155,33
910,67	3149,67
911,11	3123,33
911,54	3108,33
911,98	3109,33
912,41	3155,67
912,85	3138,00
913,28	3190,33
913,72	3176,33
914,15	3134,00
914,59	3051,00
915,02	3090,00
915,46	3106,00
915,89	3098,67
916,33	3191,33
916,76	3104,00
917,20	3217,33
917,63	3101,67
918,07	3201,67
918,50	3085,33
918,94	3121,67
919,37	3124,33
919,81	3186,33
920,24	3206,33
920,67	3105,67
921,11	3291,00
921,54	3155,33
921,98	3111,00
922,41	3059,33
922,85	3056,67
923,28	3145,33
923,72	3256,67
924,15	3198,67
924,58	3064,00
925,02	3186,00
925,45	3059,00
925,89	3197,00
926,32	3326,00
926,75	3094,00
927,19	3197,00
927,62	3074,67
928,06	3309,67
928,49	3145,00
928,92	3055,67
929,36	3230,67
929,79	3117,33
930,23	3164,67
930,66	3198,00
931,09	3101,67
931,53	3164,67
931,96	3030,00
932,39	3275,00
932,83	3194,00
933,26	3353,33
933,70	3122,00
934,13	3236,00
934,56	3199,33
935,00	3197,00
935,43	3163,00
935,86	3062,67
936,30	3113,33
936,73	3093,67
937,16	3156,00
937,60	3088,00
938,03	3187,67
938,46	3088,67
938,90	3114,00
939,33	3197,00
939,76	3063,67
940,19	3155,00
940,63	3207,67
941,06	3321,33
941,49	3118,00
941,93	3193,67
942,36	3090,33
942,79	3104,00
943,23	3192,67
943,66	3077,00
944,09	3063,67
944,52	3186,33
944,96	3109,00
945,39	3188,00
945,82	3129,67
946,26	3154,67
946,69	3162,00
947,12	3236,00
947,55	3116,00
947,99	3136,00
948,42	3176,67
948,85	3038,67
949,28	3080,33
949,72	3067,67
950,15	3355,67
950,58	3245,67
951,01	3129,33
951,45	3095,33
951,88	3176,00
952,31	3056,00
952,74	3203,00
953,17	3097,67
953,61	3274,67
954,04	3066,00
954,47	3103,67
954,90	3106,67
955,33	3107,33
955,77	3129,33
956,20	3173,33
956,63	3060,00
957,06	3184,00
957,49	3377,67
957,93	3055,00
958,36	3173,67
958,79	3158,33
959,22	3091,67
959,65	3117,67
960,08	3102,67
960,52	3039,67
960,95	3114,00
961,38	3172,67
961,81	3194,00
962,24	3213,00
962,67	3211,00
963,11	3091,00
963,54	3165,67
963,97	3104,67
964,40	3114,67
964,83	3118,67
965,26	3084,33
965,69	3212,67
966,13	3087,33
966,56	3115,67
966,99	3174,33
967,42	3107,00
967,85	3074,67
968,28	3234,33
968,71	3502,00
969,14	3179,33
969,57	3126,67
970,01	3182,33
970,44	3073,67
970,87	3101,00
971,30	3170,00
971,73	3102,67
972,16	3130,67
972,59	3049,33
973,02	3064,33
973,45	3125,67
973,88	3161,33
974,31	3114,00
974,74	3191,33
975,17	3129,00
975,61	3099,67
976,04	3097,67
976,47	3103,00
976,90	3137,67
977,33	3091,33
977,76	3182,33
978,19	3149,67
978,62	3108,33
979,05	3112,33
979,48	3130,67
979,91	3214,00
980,34	3159,00
980,77	3087,33
981,20	3166,00
981,63	3214,00
982,06	3147,33
982,49	3120,67
982,92	3103,67
983,35	3120,33
983,78	3094,00
984,21	3215,33
984,64	3184,00
985,07	3051,67
985,50	3013,67
985,93	3098,00
986,36	3172,00
986,79	3114,00
987,22	3063,67
987,65	3165,00
988,08	3129,67
988,51	3150,33
988,94	3108,00
989,37	3147,67
989,80	3136,67
990,23	3117,33
990,66	3155,67
991,09	3141,00
991,51	3122,67
991,94	3284,33
992,37	3138,00
992,80	3068,00
993,23	3128,00
993,66	3085,33
994,09	3093,67
994,52	3192,00
994,95	3204,33
995,38	3161,67
995,81	3126,33
996,24	3049,00
996,67	3047,00
997,09	3028,00
997,52	3204,00
997,95	3179,67
998,38	3097,67
998,81	3179,00
999,24	3073,33
999,67	3243,67
1000,10	3149,67
1000,53	3139,33
1000,95	3259,67
1001,38	3073,00
1001,81	3154,33
1002,24	3203,00
1002,67	3128,33
1003,10	3150,67
1003,53	3133,67
1003,95	3192,33
1004,38	3077,00
1004,81	3164,33
1005,24	3131,33
1005,67	3238,33
1006,10	3128,67
1006,52	3053,67
1006,95	3158,67
1007,38	3106,00
1007,81	3081,33
1008,24	3039,00
1008,67	3132,00
1009,09	3082,67
1009,52	3410,33
1009,95	3204,00
1010,38	3205,33
1010,81	3165,33
1011,23	3164,00
1011,66	3197,33
1012,09	3133,00
1012,52	3194,33
1012,95	3141,33
1013,37	3163,67
1013,80	3181,67
1014,23	3090,00
1014,66	3248,67
1015,08	3035,00
1015,51	3193,67
1015,94	3092,33
1016,37	3152,33
1016,80	3059,33
1017,22	3165,33
1017,65	3096,33
1018,08	3106,00
1018,51	3116,67
1018,93	3037,67
1019,36	3393,00
1019,79	3240,33
1020,21	3161,33
1020,64	3111,67
1021,07	3121,00
1021,50	3173,67
1021,92	3167,00
1022,35	3168,67
1022,78	3142,00
1023,21	3449,00
1023,63	3227,00
1024,06	3198,00
1024,49	3154,67
1024,91	3141,00
1025,34	3153,00
1025,77	3180,00
1026,19	3068,67
1026,62	3074,33
1027,05	3322,00
1027,47	3195,67
1027,90	3151,33
1028,33	3149,00
1028,75	3153,00
1029,18	3092,67
1029,61	3341,00
1030,03	3137,33
1030,46	3127,67
1030,89	3163,00
1031,31	3268,67
1031,74	3055,67
1032,17	3163,00
1032,59	3181,00
1033,02	3119,33
1033,45	3220,67
1033,87	3104,00
1034,30	3095,33
1034,73	3200,67
1035,15	3203,33
1035,58	3120,67
1036,00	3275,67
1036,43	3101,33
1036,86	3094,33
1037,28	3170,67
1037,71	3054,67
1038,13	3208,67
1038,56	3209,33
1038,99	3205,00
1039,41	3232,33
1039,84	3272,33
1040,26	3110,67
1040,69	3120,67
1041,11	3164,33
1041,54	3104,33
1041,97	3260,00
1042,39	3231,33
1042,82	3184,00
1043,24	3222,67
1043,67	3130,67
1044,09	3186,67
1044,52	3085,67
1044,95	3125,00
1045,37	3127,00
1045,80	3067,00
1046,22	3159,00
1046,65	3179,67
1047,07	3092,33
1047,50	3174,00
1047,92	3198,00
1048,35	3090,00
1048,77	3227,67
1049,20	3187,00
1049,62	3200,00
1050,05	3133,67
1050,47	3112,33
1050,90	3194,67
1051,32	3182,67
1051,75	3240,67
1052,17	3234,00
1052,60	3142,67
1053,02	3193,33
1053,45	3013,00
1053,87	3166,67
1054,30	3036,67
1054,72	3129,33
1055,15	3096,33
1055,57	3172,67
1056,00	3191,67
1056,42	3301,00
1056,85	3238,00
1057,27	3197,33
1057,70	3152,00
1058,12	3472,00
1058,54	3089,33
1058,97	3179,67
1059,39	3208,00
1059,82	3140,67
1060,24	3134,67
1060,67	3115,00
1061,09	3202,33
1061,51	3147,00
1061,94	3122,33
1062,36	3201,33
1062,79	3266,33
1063,21	3156,33
1063,64	3141,00
1064,06	3116,67
1064,48	3215,67
1064,91	3203,67
1065,33	3116,67
1065,76	3091,67
1066,18	3033,67
1066,60	3202,33
1067,03	3173,00
1067,45	3146,00
1067,87	3170,33
1068,30	3118,33
1068,72	3288,67
1069,15	3148,33
1069,57	3124,00
1069,99	3060,67
1070,42	3221,67
1070,84	3200,67
1071,26	3235,33
1071,69	3129,67
1072,11	3201,00
1072,53	3109,33
1072,96	3082,33
1073,38	3059,00
1073,80	3168,00
1074,23	3104,33
1074,65	3067,33
1075,07	3110,33
1075,50	3113,33
1075,92	3154,00
1076,34	3102,00
1076,77	3111,00
1077,19	3143,67
1077,61	3200,00
1078,04	3098,33
1078,46	3197,67
1078,88	3264,00
1079,30	3036,00
1079,73	3149,33
1080,15	3120,67
1080,57	3154,67
1081,00	3182,00
1081,42	3141,00
1081,84	3110,67
1082,26	3161,67
1082,69	3138,67
1083,11	3152,00
1083,53	3127,33
1083,95	3159,33
1084,38	3219,00
1084,80	3143,33
1085,22	3119,67
1085,64	3215,67
1086,07	3089,33
1086,49	3113,33
1086,91	3161,33
1087,33	3056,00
1087,76	3199,33
1088,18	5549,67
1088,60	3150,67
1089,02	3091,00
1089,45	3106,00
1089,87	3107,33
1090,29	3231,00
1090,71	3130,00
1091,13	3060,00
1091,56	3134,67
1091,98	3114,33
1092,40	3086,00
1092,82	3126,67
1093,24	3121,33
1093,66	3133,00
1094,09	3119,00
1094,51	3144,33
1094,93	3108,33
1095,35	3143,00
1095,77	3103,67
1096,19	3151,33
1096,62	3150,67
1097,04	3083,00
1097,46	3143,33
1097,88	3113,67
1098,30	3182,67
1098,72	3164,33
1099,15	3192,00
1099,57	3116,33
1099,99	3101,67
1100,41	3092,33
1100,83	3118,00
1101,25	3114,67
1101,67	3140,00
1102,09	3064,33
1102,52	3115,67
1102,94	3120,00
1103,36	3135,33
1103,78	3163,33
1104,20	3107,33
1104,62	3264,33
1105,04	3017,00
1105,46	3141,33
1105,88	3128,67
1106,30	3096,00
1106,73	3136,00
1107,15	3003,33
1107,57	3037,33
1107,99	3206,00
1108,41	3044,00
1108,83	3156,00
1109,25	3140,00
1109,67	3156,00
1110,09	3009,00
1110,51	3084,00
1110,93	3032,67
1111,35	3076,67
1111,77	3036,33
1112,19	3036,00
1112,61	3016,00
1113,03	3080,67
1113,45	3044,33
1113,87	3055,33
1114,29	3093,67
1114,71	3145,00
1115,13	3058,33
1115,55	3098,67
1115,98	3066,00
1116,40	3126,67
1116,82	3116,33
1117,24	3087,33
1117,66	3041,67
1118,08	2155,00
1118,50	2176,00
1118,91	2171,67
1119,33	2177,33
>>>>>End Processed Spectral Data<<<<<
