SpectraSuite Data File
++++++++++++++++++++++++++++++++++++
Date: Wed May 16 14:11:51 EEST 2012
User: OO Maya
Dark Spectrum Present: No
Reference Spectrum Present: No
Number of Sampled Component Spectra: 1
Spectrometers: MAYP11278
Integration Time (usec): 600000 (MAYP11278)
Spectra Averaged: 1 (MAYP11278)
Boxcar Smoothing: 0 (MAYP11278)
Correct for Electrical Dark: No (MAYP11278)
Strobe/Lamp Enabled: No (MAYP11278)
Correct for Detector Non-linearity: No (MAYP11278)
Correct for Stray Light: No (MAYP11278)
Number of Pixels in Processed Spectrum: 2068
>>>>>Begin Processed Spectral Data<<<<<
188,05	2294,00
188,53	2214,00
189,01	2182,00
189,49	2182,00
189,96	2988,00
190,44	3024,00
190,92	2967,00
191,40	3025,00
191,88	3072,00
192,36	3037,00
192,83	3001,00
193,31	2944,00
193,79	3010,00
194,27	2974,00
194,75	3035,00
195,23	3012,00
195,70	3055,00
196,18	2983,00
196,66	3025,00
197,14	3201,00
197,62	2989,00
198,09	3008,00
198,57	3018,00
199,05	2971,00
199,53	3039,00
200,01	3073,00
200,48	3018,00
200,96	3006,00
201,44	3074,00
201,92	3065,00
202,39	3047,00
202,87	2972,00
203,35	3054,00
203,83	3009,00
204,31	3110,00
204,78	3091,00
205,26	2960,00
205,74	2985,00
206,22	3137,00
206,69	2997,00
207,17	3043,00
207,65	3196,00
208,13	3050,00
208,60	3051,00
209,08	3026,00
209,56	3064,00
210,04	3082,00
210,51	3027,00
210,99	2974,00
211,47	3073,00
211,94	3044,00
212,42	2993,00
212,90	3181,00
213,38	3046,00
213,85	3015,00
214,33	3138,00
214,81	3074,00
215,29	3131,00
215,76	3065,00
216,24	3100,00
216,72	3087,00
217,19	3047,00
217,67	3002,00
218,15	3053,00
218,62	3092,00
219,10	2967,00
219,58	2989,00
220,05	3055,00
220,53	3036,00
221,01	3117,00
221,49	3046,00
221,96	3095,00
222,44	2989,00
222,92	3104,00
223,39	3018,00
223,87	3123,00
224,35	3037,00
224,82	3022,00
225,30	3019,00
225,78	3060,00
226,25	2997,00
226,73	3036,00
227,21	3113,00
227,68	3033,00
228,16	3101,00
228,63	3065,00
229,11	3095,00
229,59	3035,00
230,06	2997,00
230,54	3052,00
231,02	3109,00
231,49	3118,00
231,97	3072,00
232,45	3076,00
232,92	3000,00
233,40	3064,00
233,87	3061,00
234,35	3264,00
234,83	3018,00
235,30	3034,00
235,78	3023,00
236,25	3024,00
236,73	3110,00
237,21	3185,00
237,68	3009,00
238,16	3024,00
238,63	3058,00
239,11	3054,00
239,59	3045,00
240,06	3011,00
240,54	3071,00
241,01	3118,00
241,49	3065,00
241,96	3032,00
242,44	3091,00
242,92	3112,00
243,39	2995,00
243,87	3049,00
244,34	3136,00
244,82	3134,00
245,29	3055,00
245,77	3148,00
246,24	3101,00
246,72	3043,00
247,20	3043,00
247,67	3046,00
248,15	3055,00
248,62	3079,00
249,10	2985,00
249,57	3057,00
250,05	3092,00
250,52	3084,00
251,00	3145,00
251,47	3035,00
251,95	3162,00
252,42	3122,00
252,90	3029,00
253,37	3147,00
253,85	3106,00
254,32	3036,00
254,80	3053,00
255,27	3078,00
255,75	3107,00
256,22	2996,00
256,70	3068,00
257,17	3107,00
257,65	3103,00
258,12	3251,00
258,60	3093,00
259,07	3037,00
259,55	3076,00
260,02	3103,00
260,50	3165,00
260,97	3048,00
261,45	3011,00
261,92	3163,00
262,40	3030,00
262,87	3087,00
263,35	3061,00
263,82	2989,00
264,30	3104,00
264,77	3109,00
265,25	3042,00
265,72	3073,00
266,19	3069,00
266,67	3112,00
267,14	3060,00
267,62	3050,00
268,09	3066,00
268,57	3095,00
269,04	2959,00
269,51	3017,00
269,99	3066,00
270,46	3083,00
270,94	3138,00
271,41	3039,00
271,89	3053,00
272,36	3004,00
272,83	3022,00
273,31	2932,00
273,78	3107,00
274,26	3278,00
274,73	3113,00
275,20	3119,00
275,68	3028,00
276,15	3095,00
276,63	3074,00
277,10	3083,00
277,57	3004,00
278,05	3041,00
278,52	3032,00
279,00	3263,00
279,47	3031,00
279,94	3041,00
280,42	3305,00
280,89	3137,00
281,36	3232,00
281,84	3040,00
282,31	3110,00
282,78	3077,00
283,26	3026,00
283,73	3103,00
284,21	3047,00
284,68	3009,00
285,15	3099,00
285,63	3055,00
286,10	3088,00
286,57	3087,00
287,05	3041,00
287,52	3074,00
287,99	3163,00
288,47	3035,00
288,94	3121,00
289,41	2973,00
289,89	3137,00
290,36	3007,00
290,83	3103,00
291,30	3022,00
291,78	3124,00
292,25	3171,00
292,72	3047,00
293,20	3129,00
293,67	3034,00
294,14	3118,00
294,62	3107,00
295,09	3021,00
295,56	3065,00
296,03	3064,00
296,51	3176,00
296,98	3147,00
297,45	3115,00
297,93	3095,00
298,40	3083,00
298,87	3052,00
299,34	3161,00
299,82	3049,00
300,29	3117,00
300,76	3022,00
301,23	3123,00
301,71	3131,00
302,18	3090,00
302,65	3019,00
303,12	3089,00
303,60	3118,00
304,07	3020,00
304,54	3017,00
305,01	3001,00
305,49	3071,00
305,96	3111,00
306,43	3085,00
306,90	3114,00
307,38	3041,00
307,85	3055,00
308,32	3074,00
308,79	3039,00
309,27	3115,00
309,74	3146,00
310,21	3084,00
310,68	3109,00
311,15	3105,00
311,63	3077,00
312,10	3134,00
312,57	3069,00
313,04	3201,00
313,51	3019,00
313,99	3031,00
314,46	3081,00
314,93	3063,00
315,40	3023,00
315,87	3118,00
316,34	3113,00
316,82	3097,00
317,29	3104,00
317,76	3086,00
318,23	3250,00
318,70	3078,00
319,17	3100,00
319,65	3000,00
320,12	3094,00
320,59	3152,00
321,06	3090,00
321,53	3072,00
322,00	2982,00
322,48	3023,00
322,95	3190,00
323,42	3064,00
323,89	3257,00
324,36	2993,00
324,83	3079,00
325,30	3057,00
325,78	3044,00
326,25	3026,00
326,72	3044,00
327,19	3092,00
327,66	3101,00
328,13	3099,00
328,60	3114,00
329,07	3017,00
329,54	3058,00
330,02	3035,00
330,49	3038,00
330,96	3139,00
331,43	3071,00
331,90	3178,00
332,37	3033,00
332,84	3201,00
333,31	3111,00
333,78	3077,00
334,25	3127,00
334,72	3119,00
335,20	3088,00
335,67	3297,00
336,14	3031,00
336,61	3063,00
337,08	3084,00
337,55	3079,00
338,02	3015,00
338,49	3048,00
338,96	3175,00
339,43	3135,00
339,90	3045,00
340,37	3000,00
340,84	3021,00
341,31	3076,00
341,78	3172,00
342,25	3064,00
342,72	3098,00
343,19	3111,00
343,67	3090,00
344,14	3054,00
344,61	3062,00
345,08	3044,00
345,55	3100,00
346,02	3093,00
346,49	3021,00
346,96	3013,00
347,43	3124,00
347,90	3011,00
348,37	3150,00
348,84	3064,00
349,31	3010,00
349,78	3070,00
350,25	3125,00
350,72	3079,00
351,19	3051,00
351,66	3094,00
352,13	3151,00
352,60	3074,00
353,07	3074,00
353,54	3112,00
354,01	3109,00
354,48	3110,00
354,94	3097,00
355,41	3057,00
355,88	3185,00
356,35	3021,00
356,82	3200,00
357,29	3029,00
357,76	3229,00
358,23	3119,00
358,70	3010,00
359,17	3031,00
359,64	3003,00
360,11	3064,00
360,58	3150,00
361,05	3134,00
361,52	3067,00
361,99	3086,00
362,46	3082,00
362,93	3096,00
363,39	3061,00
363,86	3187,00
364,33	3095,00
364,80	3052,00
365,27	3088,00
365,74	3041,00
366,21	3027,00
366,68	3079,00
367,15	3057,00
367,62	3099,00
368,09	2981,00
368,55	3016,00
369,02	3138,00
369,49	3006,00
369,96	3109,00
370,43	3115,00
370,90	3054,00
371,37	3073,00
371,84	3110,00
372,31	3035,00
372,77	2996,00
373,24	3057,00
373,71	3092,00
374,18	2988,00
374,65	3021,00
375,12	3100,00
375,59	2976,00
376,05	3127,00
376,52	3047,00
376,99	3022,00
377,46	3011,00
377,93	3080,00
378,40	3109,00
378,86	3045,00
379,33	3098,00
379,80	3051,00
380,27	3123,00
380,74	3129,00
381,21	3099,00
381,67	3175,00
382,14	3142,00
382,61	3013,00
383,08	3074,00
383,55	3056,00
384,02	3145,00
384,48	3075,00
384,95	3362,00
385,42	3064,00
385,89	3062,00
386,36	3074,00
386,82	3171,00
387,29	3032,00
387,76	2998,00
388,23	3153,00
388,69	3108,00
389,16	3150,00
389,63	3040,00
390,10	3123,00
390,57	3085,00
391,03	3095,00
391,50	3105,00
391,97	3059,00
392,44	3096,00
392,90	3060,00
393,37	3086,00
393,84	3222,00
394,31	3067,00
394,77	3149,00
395,24	3047,00
395,71	3105,00
396,18	3369,00
396,64	3015,00
397,11	3105,00
397,58	3111,00
398,05	3045,00
398,51	3078,00
398,98	3063,00
399,45	3026,00
399,92	3150,00
400,38	3030,00
400,85	3070,00
401,32	3032,00
401,78	3098,00
402,25	3091,00
402,72	3082,00
403,18	3019,00
403,65	3173,00
404,12	3095,00
404,59	3127,00
405,05	3210,00
405,52	3141,00
405,99	3018,00
406,45	3100,00
406,92	3086,00
407,39	3181,00
407,85	3087,00
408,32	3076,00
408,79	3104,00
409,25	3027,00
409,72	3181,00
410,19	3016,00
410,65	3159,00
411,12	3046,00
411,59	3162,00
412,05	3013,00
412,52	2987,00
412,99	3118,00
413,45	3055,00
413,92	3115,00
414,39	3115,00
414,85	3194,00
415,32	3056,00
415,78	3195,00
416,25	3141,00
416,72	3113,00
417,18	3193,00
417,65	3103,00
418,12	3099,00
418,58	3110,00
419,05	3076,00
419,51	3141,00
419,98	3068,00
420,45	3118,00
420,91	3038,00
421,38	3098,00
421,84	3075,00
422,31	3091,00
422,78	3080,00
423,24	3075,00
423,71	3085,00
424,17	3125,00
424,64	3072,00
425,11	3125,00
425,57	3074,00
426,04	3213,00
426,50	3075,00
426,97	3142,00
427,43	3131,00
427,90	3128,00
428,37	3033,00
428,83	3119,00
429,30	3116,00
429,76	3052,00
430,23	3131,00
430,69	3295,00
431,16	2999,00
431,62	3067,00
432,09	3161,00
432,55	3151,00
433,02	3063,00
433,48	3052,00
433,95	3089,00
434,42	3031,00
434,88	3148,00
435,35	3033,00
435,81	3141,00
436,28	3069,00
436,74	3047,00
437,21	3110,00
437,67	3076,00
438,14	3096,00
438,60	3055,00
439,07	3096,00
439,53	3333,00
440,00	3126,00
440,46	3136,00
440,93	3138,00
441,39	3049,00
441,86	3084,00
442,32	3227,00
442,79	3003,00
443,25	3090,00
443,72	3138,00
444,18	3017,00
444,64	3187,00
445,11	3111,00
445,57	3072,00
446,04	3107,00
446,50	3140,00
446,97	3117,00
447,43	3094,00
447,90	3062,00
448,36	3027,00
448,83	3121,00
449,29	3093,00
449,75	3073,00
450,22	3038,00
450,68	3053,00
451,15	3070,00
451,61	3089,00
452,08	3119,00
452,54	3071,00
453,00	3151,00
453,47	3088,00
453,93	3070,00
454,40	3085,00
454,86	3161,00
455,32	3065,00
455,79	3086,00
456,25	3128,00
456,72	3057,00
457,18	3160,00
457,64	3072,00
458,11	3095,00
458,57	3014,00
459,04	3093,00
459,50	3113,00
459,96	3071,00
460,43	3051,00
460,89	3041,00
461,36	3178,00
461,82	3100,00
462,28	3062,00
462,75	3007,00
463,21	3135,00
463,67	3089,00
464,14	3107,00
464,60	3126,00
465,06	3023,00
465,53	3052,00
465,99	3128,00
466,45	3082,00
466,92	3147,00
467,38	3128,00
467,84	3091,00
468,31	3108,00
468,77	3107,00
469,23	3063,00
469,70	3048,00
470,16	3094,00
470,62	3139,00
471,09	3058,00
471,55	3065,00
472,01	3021,00
472,48	3040,00
472,94	3075,00
473,40	3167,00
473,87	3059,00
474,33	3041,00
474,79	3094,00
475,25	3019,00
475,72	3074,00
476,18	3077,00
476,64	3113,00
477,11	3086,00
477,57	3072,00
478,03	3178,00
478,49	3065,00
478,96	3121,00
479,42	3061,00
479,88	3178,00
480,35	3125,00
480,81	3083,00
481,27	3068,00
481,73	3082,00
482,20	3079,00
482,66	3016,00
483,12	3095,00
483,58	3026,00
484,05	3066,00
484,51	3138,00
484,97	3101,00
485,43	3053,00
485,89	3000,00
486,36	3093,00
486,82	2975,00
487,28	3103,00
487,74	3015,00
488,21	3000,00
488,67	3034,00
489,13	3114,00
489,59	3055,00
490,05	3153,00
490,52	3027,00
490,98	3078,00
491,44	3025,00
491,90	3036,00
492,36	2983,00
492,83	3118,00
493,29	3091,00
493,75	3111,00
494,21	3002,00
494,67	3033,00
495,14	3058,00
495,60	3049,00
496,06	3099,00
496,52	3025,00
496,98	3072,00
497,44	3178,00
497,91	3137,00
498,37	3022,00
498,83	3105,00
499,29	3067,00
499,75	3225,00
500,21	3075,00
500,67	3058,00
501,14	3075,00
501,60	3081,00
502,06	3119,00
502,52	3052,00
502,98	3090,00
503,44	3070,00
503,90	3095,00
504,37	3056,00
504,83	3094,00
505,29	3078,00
505,75	3029,00
506,21	3043,00
506,67	3100,00
507,13	3052,00
507,59	3103,00
508,05	3102,00
508,51	3017,00
508,98	3052,00
509,44	2972,00
509,90	3062,00
510,36	3043,00
510,82	3021,00
511,28	3133,00
511,74	3138,00
512,20	3013,00
512,66	3007,00
513,12	3024,00
513,58	3095,00
514,04	2957,00
514,51	3142,00
514,97	3181,00
515,43	2990,00
515,89	3088,00
516,35	3147,00
516,81	3112,00
517,27	3241,00
517,73	3100,00
518,19	3091,00
518,65	3298,00
519,11	3081,00
519,57	3013,00
520,03	3021,00
520,49	3016,00
520,95	3100,00
521,41	3093,00
521,87	3138,00
522,33	3071,00
522,79	3017,00
523,25	3161,00
523,71	3138,00
524,17	3050,00
524,63	3159,00
525,09	3071,00
525,55	3143,00
526,01	3122,00
526,47	3125,00
526,93	3093,00
527,39	3074,00
527,85	3033,00
528,31	3108,00
528,77	3109,00
529,23	3051,00
529,69	3033,00
530,15	3121,00
530,61	3115,00
531,07	3045,00
531,53	3100,00
531,99	3084,00
532,45	3075,00
532,91	3044,00
533,37	3103,00
533,83	3075,00
534,29	3017,00
534,75	3087,00
535,21	3007,00
535,67	3087,00
536,12	3045,00
536,58	3099,00
537,04	3020,00
537,50	3087,00
537,96	3070,00
538,42	3094,00
538,88	3192,00
539,34	3107,00
539,80	3429,00
540,26	3024,00
540,72	3174,00
541,18	3085,00
541,63	3006,00
542,09	3109,00
542,55	3117,00
543,01	3094,00
543,47	3259,00
543,93	3044,00
544,39	3221,00
544,85	3116,00
545,31	3059,00
545,76	3066,00
546,22	3158,00
546,68	3119,00
547,14	3098,00
547,60	3135,00
548,06	3104,00
548,52	3079,00
548,98	3083,00
549,43	3012,00
549,89	3209,00
550,35	3055,00
550,81	3041,00
551,27	3116,00
551,73	3081,00
552,19	3167,00
552,64	3084,00
553,10	3021,00
553,56	3119,00
554,02	3071,00
554,48	3027,00
554,93	3111,00
555,39	3089,00
555,85	3198,00
556,31	3086,00
556,77	3181,00
557,23	3014,00
557,68	3065,00
558,14	3219,00
558,60	3024,00
559,06	3085,00
559,52	3028,00
559,97	3066,00
560,43	3011,00
560,89	3092,00
561,35	3067,00
561,81	3064,00
562,26	3050,00
562,72	2984,00
563,18	3081,00
563,64	3166,00
564,09	3043,00
564,55	3086,00
565,01	3036,00
565,47	3017,00
565,92	3097,00
566,38	3156,00
566,84	3064,00
567,30	3052,00
567,75	3086,00
568,21	3145,00
568,67	3116,00
569,13	3067,00
569,58	3112,00
570,04	3101,00
570,50	3063,00
570,96	3112,00
571,41	3129,00
571,87	3072,00
572,33	3091,00
572,78	3121,00
573,24	3051,00
573,70	3032,00
574,16	3087,00
574,61	3181,00
575,07	3151,00
575,53	3002,00
575,98	3104,00
576,44	2956,00
576,90	3113,00
577,36	3057,00
577,81	3065,00
578,27	3018,00
578,73	3145,00
579,18	3080,00
579,64	3025,00
580,10	3112,00
580,55	3096,00
581,01	3066,00
581,47	3087,00
581,92	3084,00
582,38	3114,00
582,84	3012,00
583,29	3074,00
583,75	3098,00
584,21	3071,00
584,66	3124,00
585,12	3025,00
585,57	3241,00
586,03	3076,00
586,49	3065,00
586,94	3067,00
587,40	3074,00
587,86	3137,00
588,31	3014,00
588,77	3119,00
589,22	3099,00
589,68	3027,00
590,14	3119,00
590,59	3148,00
591,05	3037,00
591,51	3003,00
591,96	3158,00
592,42	3078,00
592,87	3096,00
593,33	3068,00
593,78	3147,00
594,24	3069,00
594,70	3059,00
595,15	3177,00
595,61	3071,00
596,06	3068,00
596,52	3165,00
596,98	3131,00
597,43	3170,00
597,89	3096,00
598,34	3013,00
598,80	3105,00
599,25	3176,00
599,71	3042,00
600,16	3108,00
600,62	3155,00
601,08	3108,00
601,53	3143,00
601,99	3022,00
602,44	3271,00
602,90	3068,00
603,35	3088,00
603,81	3007,00
604,26	3004,00
604,72	3133,00
605,17	3085,00
605,63	3135,00
606,08	3093,00
606,54	3033,00
606,99	3052,00
607,45	3085,00
607,90	3080,00
608,36	3123,00
608,81	3059,00
609,27	3246,00
609,72	3118,00
610,18	3099,00
610,63	3069,00
611,09	3105,00
611,54	3052,00
612,00	3189,00
612,45	3071,00
612,91	3071,00
613,36	3300,00
613,82	3046,00
614,27	3008,00
614,73	3014,00
615,18	3026,00
615,64	3067,00
616,09	3075,00
616,54	3032,00
617,00	3078,00
617,45	3070,00
617,91	3132,00
618,36	3049,00
618,82	3058,00
619,27	3078,00
619,72	3127,00
620,18	3092,00
620,63	3146,00
621,09	3140,00
621,54	3092,00
622,00	3138,00
622,45	3173,00
622,90	3152,00
623,36	3080,00
623,81	3021,00
624,27	3107,00
624,72	3025,00
625,17	3074,00
625,63	3095,00
626,08	3049,00
626,54	3069,00
626,99	3072,00
627,44	3037,00
627,90	3136,00
628,35	3125,00
628,81	2987,00
629,26	3060,00
629,71	3104,00
630,17	3050,00
630,62	3104,00
631,07	3096,00
631,53	3106,00
631,98	3103,00
632,43	3146,00
632,89	3054,00
633,34	3057,00
633,79	3038,00
634,25	3063,00
634,70	3012,00
635,15	3068,00
635,61	3045,00
636,06	3033,00
636,51	3083,00
636,97	3101,00
637,42	3034,00
637,87	3109,00
638,33	3153,00
638,78	3035,00
639,23	3043,00
639,69	3000,00
640,14	3024,00
640,59	3098,00
641,05	3149,00
641,50	3009,00
641,95	3059,00
642,40	3037,00
642,86	3022,00
643,31	3058,00
643,76	3135,00
644,22	3045,00
644,67	3025,00
645,12	3056,00
645,57	3001,00
646,03	3082,00
646,48	3089,00
646,93	3080,00
647,38	3121,00
647,84	3104,00
648,29	3108,00
648,74	3024,00
649,19	3137,00
649,65	3095,00
650,10	3351,00
650,55	3029,00
651,00	3027,00
651,46	3056,00
651,91	3061,00
652,36	3017,00
652,81	3047,00
653,27	3049,00
653,72	3047,00
654,17	3083,00
654,62	3090,00
655,07	3038,00
655,53	3036,00
655,98	3137,00
656,43	3042,00
656,88	3063,00
657,33	3091,00
657,79	3121,00
658,24	3066,00
658,69	3088,00
659,14	3019,00
659,59	3329,00
660,05	3088,00
660,50	3123,00
660,95	3085,00
661,40	3022,00
661,85	3087,00
662,30	3056,00
662,76	3001,00
663,21	3100,00
663,66	3075,00
664,11	3054,00
664,56	3110,00
665,01	3025,00
665,47	3067,00
665,92	3032,00
666,37	3110,00
666,82	3073,00
667,27	3275,00
667,72	3147,00
668,17	3037,00
668,62	3078,00
669,08	3044,00
669,53	3218,00
669,98	3008,00
670,43	3022,00
670,88	3106,00
671,33	3086,00
671,78	3166,00
672,23	3248,00
672,69	3080,00
673,14	3063,00
673,59	3158,00
674,04	3270,00
674,49	3089,00
674,94	3123,00
675,39	2985,00
675,84	3010,00
676,29	3094,00
676,74	3070,00
677,19	3067,00
677,64	3057,00
678,10	3255,00
678,55	3022,00
679,00	3074,00
679,45	3104,00
679,90	3062,00
680,35	3086,00
680,80	3049,00
681,25	2976,00
681,70	2998,00
682,15	3064,00
682,60	3081,00
683,05	3118,00
683,50	3100,00
683,95	3069,00
684,40	3164,00
684,85	3092,00
685,30	3102,00
685,75	3123,00
686,20	3049,00
686,65	3015,00
687,10	3095,00
687,55	3003,00
688,00	3049,00
688,45	3061,00
688,90	3208,00
689,35	3109,00
689,80	3008,00
690,25	3064,00
690,70	3087,00
691,15	2973,00
691,60	3066,00
692,05	2959,00
692,50	3080,00
692,95	3072,00
693,40	3126,00
693,85	3105,00
694,30	3055,00
694,75	3080,00
695,20	3389,00
695,65	3097,00
696,10	3081,00
696,55	3201,00
697,00	3076,00
697,45	3039,00
697,90	3118,00
698,35	3054,00
698,80	3129,00
699,24	3117,00
699,69	3045,00
700,14	3041,00
700,59	3147,00
701,04	3150,00
701,49	3321,00
701,94	3012,00
702,39	3181,00
702,84	3036,00
703,29	3060,00
703,74	3106,00
704,19	3073,00
704,63	3052,00
705,08	3136,00
705,53	3150,00
705,98	3116,00
706,43	3023,00
706,88	3107,00
707,33	3068,00
707,78	3067,00
708,22	3117,00
708,67	3141,00
709,12	3103,00
709,57	3037,00
710,02	3074,00
710,47	3079,00
710,92	3037,00
711,37	3101,00
711,81	3130,00
712,26	3081,00
712,71	3042,00
713,16	3186,00
713,61	3065,00
714,06	3067,00
714,50	3157,00
714,95	3125,00
715,40	3062,00
715,85	3076,00
716,30	3031,00
716,75	3041,00
717,19	2993,00
717,64	2979,00
718,09	3103,00
718,54	3132,00
718,99	3026,00
719,43	3001,00
719,88	3058,00
720,33	3049,00
720,78	3069,00
721,23	3087,00
721,67	3068,00
722,12	3098,00
722,57	3058,00
723,02	2981,00
723,47	3002,00
723,91	3057,00
724,36	3003,00
724,81	3088,00
725,26	3004,00
725,70	3070,00
726,15	3041,00
726,60	3076,00
727,05	3132,00
727,49	3020,00
727,94	3162,00
728,39	3115,00
728,84	3084,00
729,28	3121,00
729,73	3042,00
730,18	3088,00
730,63	3005,00
731,07	3086,00
731,52	3142,00
731,97	3101,00
732,41	3091,00
732,86	3020,00
733,31	3101,00
733,76	3101,00
734,20	3042,00
734,65	3128,00
735,10	3147,00
735,54	3078,00
735,99	3259,00
736,44	3050,00
736,89	3122,00
737,33	3113,00
737,78	3119,00
738,23	3095,00
738,67	3057,00
739,12	3065,00
739,57	3009,00
740,01	3142,00
740,46	3066,00
740,91	3052,00
741,35	3137,00
741,80	3119,00
742,25	3084,00
742,69	3099,00
743,14	3035,00
743,59	3025,00
744,03	3101,00
744,48	3148,00
744,92	3146,00
745,37	3105,00
745,82	3123,00
746,26	3179,00
746,71	2961,00
747,16	3050,00
747,60	3007,00
748,05	3081,00
748,49	3070,00
748,94	3041,00
749,39	3097,00
749,83	3274,00
750,28	3081,00
750,73	3091,00
751,17	3019,00
751,62	3068,00
752,06	3019,00
752,51	3037,00
752,95	3211,00
753,40	3041,00
753,85	3071,00
754,29	3028,00
754,74	3021,00
755,18	3018,00
755,63	3074,00
756,07	3098,00
756,52	3178,00
756,97	3060,00
757,41	3153,00
757,86	3044,00
758,30	3071,00
758,75	3082,00
759,19	3060,00
759,64	2987,00
760,08	3060,00
760,53	3068,00
760,98	3059,00
761,42	3055,00
761,87	3146,00
762,31	3037,00
762,76	2990,00
763,20	3027,00
763,65	3080,00
764,09	3061,00
764,54	3007,00
764,98	3034,00
765,43	3063,00
765,87	3033,00
766,32	2994,00
766,76	3037,00
767,21	3071,00
767,65	3082,00
768,10	3100,00
768,54	3121,00
768,99	3087,00
769,43	3196,00
769,88	3020,00
770,32	3054,00
770,77	3025,00
771,21	3016,00
771,65	3113,00
772,10	3060,00
772,54	3111,00
772,99	3056,00
773,43	3049,00
773,88	3052,00
774,32	2996,00
774,77	3053,00
775,21	3045,00
775,65	3087,00
776,10	3084,00
776,54	3049,00
776,99	3037,00
777,43	3067,00
777,88	3114,00
778,32	3106,00
778,76	3078,00
779,21	3071,00
779,65	3245,00
780,10	3155,00
780,54	3100,00
780,99	3101,00
781,43	3129,00
781,87	3013,00
782,32	3131,00
782,76	3001,00
783,20	3097,00
783,65	3165,00
784,09	3095,00
784,54	3106,00
784,98	3033,00
785,42	3065,00
785,87	3039,00
786,31	3118,00
786,75	3125,00
787,20	3154,00
787,64	3007,00
788,09	3031,00
788,53	3076,00
788,97	3039,00
789,42	3058,00
789,86	3057,00
790,30	3084,00
790,75	3009,00
791,19	3010,00
791,63	3143,00
792,08	3035,00
792,52	3090,00
792,96	3035,00
793,41	3353,00
793,85	3104,00
794,29	3065,00
794,74	3076,00
795,18	3044,00
795,62	3012,00
796,06	3094,00
796,51	3078,00
796,95	3098,00
797,39	3029,00
797,84	2985,00
798,28	3070,00
798,72	3108,00
799,16	3077,00
799,61	3029,00
800,05	3179,00
800,49	3087,00
800,94	3022,00
801,38	3078,00
801,82	3067,00
802,26	3046,00
802,71	3119,00
803,15	3167,00
803,59	3130,00
804,03	3113,00
804,48	3070,00
804,92	3059,00
805,36	3165,00
805,80	3220,00
806,25	3236,00
806,69	3156,00
807,13	3177,00
807,57	3030,00
808,01	3068,00
808,46	3021,00
808,90	3094,00
809,34	3059,00
809,78	3046,00
810,23	3008,00
810,67	3077,00
811,11	3135,00
811,55	3323,00
811,99	3058,00
812,44	3043,00
812,88	3109,00
813,32	3201,00
813,76	3132,00
814,20	3068,00
814,64	3102,00
815,09	3110,00
815,53	3080,00
815,97	3029,00
816,41	3003,00
816,85	3036,00
817,29	3122,00
817,74	3076,00
818,18	3135,00
818,62	3058,00
819,06	3067,00
819,50	3164,00
819,94	3035,00
820,39	3089,00
820,83	3024,00
821,27	3074,00
821,71	3032,00
822,15	3157,00
822,59	3036,00
823,03	3082,00
823,47	3118,00
823,92	3022,00
824,36	3072,00
824,80	3077,00
825,24	3041,00
825,68	3104,00
826,12	3035,00
826,56	3021,00
827,00	2976,00
827,44	3075,00
827,88	3126,00
828,33	3140,00
828,77	3050,00
829,21	3123,00
829,65	3095,00
830,09	3035,00
830,53	3172,00
830,97	3037,00
831,41	3207,00
831,85	3141,00
832,29	3094,00
832,73	3001,00
833,17	3055,00
833,61	3084,00
834,05	3133,00
834,49	3119,00
834,93	3036,00
835,37	3024,00
835,82	3149,00
836,26	3082,00
836,70	3083,00
837,14	3034,00
837,58	3126,00
838,02	3033,00
838,46	3051,00
838,90	3065,00
839,34	3089,00
839,78	3190,00
840,22	3227,00
840,66	3106,00
841,10	3118,00
841,54	2996,00
841,98	3020,00
842,42	3007,00
842,86	3033,00
843,30	3131,00
843,74	3103,00
844,18	3110,00
844,62	3106,00
845,06	3031,00
845,50	3094,00
845,94	3074,00
846,37	3135,00
846,81	3052,00
847,25	3031,00
847,69	3083,00
848,13	3006,00
848,57	3061,00
849,01	3075,00
849,45	3110,00
849,89	3159,00
850,33	3146,00
850,77	3066,00
851,21	3127,00
851,65	3015,00
852,09	3096,00
852,53	3144,00
852,97	3044,00
853,40	3028,00
853,84	3103,00
854,28	2995,00
854,72	3142,00
855,16	2997,00
855,60	3032,00
856,04	3097,00
856,48	3172,00
856,92	3083,00
857,36	3095,00
857,79	3085,00
858,23	2988,00
858,67	3120,00
859,11	2953,00
859,55	3030,00
859,99	3044,00
860,43	3066,00
860,87	3088,00
861,30	3104,00
861,74	3051,00
862,18	3049,00
862,62	3090,00
863,06	3045,00
863,50	3070,00
863,94	3119,00
864,37	3029,00
864,81	3083,00
865,25	3064,00
865,69	2988,00
866,13	3051,00
866,57	2989,00
867,00	3088,00
867,44	3025,00
867,88	3118,00
868,32	3035,00
868,76	3013,00
869,19	3071,00
869,63	3064,00
870,07	3146,00
870,51	3234,00
870,95	3021,00
871,38	3088,00
871,82	3071,00
872,26	3017,00
872,70	3089,00
873,14	3105,00
873,57	3057,00
874,01	3138,00
874,45	3115,00
874,89	3026,00
875,32	2996,00
875,76	3105,00
876,20	2994,00
876,64	3094,00
877,07	3072,00
877,51	3045,00
877,95	3028,00
878,39	3057,00
878,82	3055,00
879,26	3045,00
879,70	3165,00
880,14	3005,00
880,57	3015,00
881,01	3014,00
881,45	3083,00
881,89	3115,00
882,32	3073,00
882,76	3075,00
883,20	3063,00
883,63	3042,00
884,07	3022,00
884,51	3110,00
884,94	3059,00
885,38	3098,00
885,82	3108,00
886,26	3041,00
886,69	3015,00
887,13	3152,00
887,57	3006,00
888,00	3023,00
888,44	3055,00
888,88	3068,00
889,31	3271,00
889,75	2956,00
890,19	3110,00
890,62	3020,00
891,06	3088,00
891,50	3085,00
891,93	3022,00
892,37	3032,00
892,81	3053,00
893,24	3017,00
893,68	3021,00
894,11	3077,00
894,55	3058,00
894,99	3055,00
895,42	3049,00
895,86	2970,00
896,30	3084,00
896,73	3123,00
897,17	3018,00
897,60	3026,00
898,04	3051,00
898,48	3063,00
898,91	3104,00
899,35	3015,00
899,78	3003,00
900,22	3050,00
900,66	3082,00
901,09	3083,00
901,53	3027,00
901,96	3162,00
902,40	3180,00
902,84	2992,00
903,27	3067,00
903,71	3144,00
904,14	3004,00
904,58	3068,00
905,01	3037,00
905,45	3021,00
905,88	3030,00
906,32	3139,00
906,76	3058,00
907,19	3123,00
907,63	3042,00
908,06	3026,00
908,50	3074,00
908,93	3142,00
909,37	3025,00
909,80	2982,00
910,24	3087,00
910,67	3053,00
911,11	3029,00
911,54	3005,00
911,98	3035,00
912,41	3043,00
912,85	3026,00
913,28	3065,00
913,72	3093,00
914,15	3047,00
914,59	2985,00
915,02	3019,00
915,46	3018,00
915,89	3009,00
916,33	3098,00
916,76	3037,00
917,20	3113,00
917,63	3030,00
918,07	3129,00
918,50	3024,00
918,94	3062,00
919,37	3080,00
919,81	3071,00
920,24	3090,00
920,67	3067,00
921,11	3159,00
921,54	3096,00
921,98	3028,00
922,41	3015,00
922,85	2989,00
923,28	3057,00
923,72	3138,00
924,15	3095,00
924,58	3006,00
925,02	3132,00
925,45	3045,00
925,89	3065,00
926,32	3242,00
926,75	3044,00
927,19	3096,00
927,62	2993,00
928,06	3185,00
928,49	3047,00
928,92	2971,00
929,36	3102,00
929,79	3024,00
930,23	3071,00
930,66	3090,00
931,09	3029,00
931,53	3069,00
931,96	2962,00
932,39	3117,00
932,83	3135,00
933,26	3192,00
933,70	3035,00
934,13	3091,00
934,56	3097,00
935,00	3061,00
935,43	3060,00
935,86	2999,00
936,30	3029,00
936,73	2991,00
937,16	3067,00
937,60	2977,00
938,03	3110,00
938,46	2994,00
938,90	3024,00
939,33	3104,00
939,76	3003,00
940,19	3037,00
940,63	3084,00
941,06	3168,00
941,49	3029,00
941,93	3065,00
942,36	2990,00
942,79	2986,00
943,23	3072,00
943,66	3001,00
944,09	2954,00
944,52	3076,00
944,96	3028,00
945,39	3074,00
945,82	3038,00
946,26	3039,00
946,69	3087,00
947,12	3105,00
947,55	2999,00
947,99	3027,00
948,42	3077,00
948,85	2950,00
949,28	2969,00
949,72	2974,00
950,15	3220,00
950,58	3133,00
951,01	3002,00
951,45	3000,00
951,88	3055,00
952,31	2990,00
952,74	3098,00
953,17	3041,00
953,61	3130,00
954,04	2992,00
954,47	3028,00
954,90	3035,00
955,33	2992,00
955,77	3029,00
956,20	3095,00
956,63	2996,00
957,06	3072,00
957,49	3255,00
957,93	2990,00
958,36	3062,00
958,79	3054,00
959,22	3012,00
959,65	3002,00
960,08	3013,00
960,52	2942,00
960,95	3008,00
961,38	3066,00
961,81	3084,00
962,24	3106,00
962,67	3089,00
963,11	3032,00
963,54	3078,00
963,97	3025,00
964,40	3046,00
964,83	3057,00
965,26	2978,00
965,69	3069,00
966,13	3020,00
966,56	3043,00
966,99	3097,00
967,42	3010,00
967,85	3018,00
968,28	3108,00
968,71	3322,00
969,14	3068,00
969,57	3054,00
970,01	3053,00
970,44	3000,00
970,87	3061,00
971,30	3086,00
971,73	3020,00
972,16	3051,00
972,59	2992,00
973,02	3004,00
973,45	3038,00
973,88	3075,00
974,31	3057,00
974,74	3095,00
975,17	3057,00
975,61	3033,00
976,04	3001,00
976,47	3025,00
976,90	3024,00
977,33	3002,00
977,76	3076,00
978,19	3060,00
978,62	3031,00
979,05	3011,00
979,48	3016,00
979,91	3053,00
980,34	3050,00
980,77	3025,00
981,20	3049,00
981,63	3075,00
982,06	3029,00
982,49	3050,00
982,92	3004,00
983,35	3038,00
983,78	3011,00
984,21	3081,00
984,64	3101,00
985,07	2973,00
985,50	2978,00
985,93	3011,00
986,36	3080,00
986,79	3035,00
987,22	3020,00
987,65	3103,00
988,08	3027,00
988,51	3060,00
988,94	3015,00
989,37	3068,00
989,80	3031,00
990,23	3008,00
990,66	3078,00
991,09	3058,00
991,51	3069,00
991,94	3150,00
992,37	3066,00
992,80	3012,00
993,23	3065,00
993,66	3018,00
994,09	3041,00
994,52	3071,00
994,95	3071,00
995,38	3063,00
995,81	3080,00
996,24	2942,00
996,67	2967,00
997,09	2927,00
997,52	3098,00
997,95	3078,00
998,38	3021,00
998,81	3079,00
999,24	2979,00
999,67	3129,00
1000,10	3042,00
1000,53	3067,00
1000,95	3097,00
1001,38	3015,00
1001,81	3063,00
1002,24	3076,00
1002,67	3023,00
1003,10	3050,00
1003,53	3053,00
1003,95	3101,00
1004,38	3001,00
1004,81	3084,00
1005,24	3031,00
1005,67	3133,00
1006,10	3022,00
1006,52	2987,00
1006,95	3069,00
1007,38	3018,00
1007,81	3037,00
1008,24	2979,00
1008,67	3061,00
1009,09	3024,00
1009,52	3271,00
1009,95	3105,00
1010,38	3087,00
1010,81	3080,00
1011,23	3092,00
1011,66	3073,00
1012,09	3041,00
1012,52	3102,00
1012,95	3050,00
1013,37	3064,00
1013,80	3087,00
1014,23	2999,00
1014,66	3139,00
1015,08	2960,00
1015,51	3078,00
1015,94	2998,00
1016,37	3088,00
1016,80	2986,00
1017,22	3087,00
1017,65	3020,00
1018,08	3054,00
1018,51	3045,00
1018,93	2963,00
1019,36	3223,00
1019,79	3087,00
1020,21	3074,00
1020,64	3033,00
1021,07	3052,00
1021,50	3070,00
1021,92	3023,00
1022,35	3076,00
1022,78	3050,00
1023,21	3256,00
1023,63	3103,00
1024,06	3106,00
1024,49	3076,00
1024,91	3041,00
1025,34	3064,00
1025,77	3117,00
1026,19	3018,00
1026,62	2977,00
1027,05	3233,00
1027,47	3064,00
1027,90	3055,00
1028,33	3019,00
1028,75	3045,00
1029,18	2988,00
1029,61	3176,00
1030,03	3072,00
1030,46	3010,00
1030,89	3096,00
1031,31	3127,00
1031,74	3001,00
1032,17	3051,00
1032,59	3101,00
1033,02	3026,00
1033,45	3078,00
1033,87	3006,00
1034,30	2995,00
1034,73	3093,00
1035,15	3079,00
1035,58	3010,00
1036,00	3134,00
1036,43	2984,00
1036,86	3042,00
1037,28	3079,00
1037,71	2999,00
1038,13	3097,00
1038,56	3104,00
1038,99	3091,00
1039,41	3089,00
1039,84	3175,00
1040,26	3013,00
1040,69	3014,00
1041,11	3052,00
1041,54	3026,00
1041,97	3108,00
1042,39	3143,00
1042,82	3101,00
1043,24	3083,00
1043,67	3051,00
1044,09	3087,00
1044,52	2996,00
1044,95	3065,00
1045,37	3026,00
1045,80	2963,00
1046,22	3041,00
1046,65	3075,00
1047,07	2999,00
1047,50	3078,00
1047,92	3047,00
1048,35	3007,00
1048,77	3116,00
1049,20	3098,00
1049,62	3109,00
1050,05	3045,00
1050,47	3009,00
1050,90	3047,00
1051,32	3071,00
1051,75	3084,00
1052,17	3114,00
1052,60	3069,00
1053,02	3135,00
1053,45	2939,00
1053,87	3033,00
1054,30	2964,00
1054,72	3033,00
1055,15	3000,00
1055,57	3067,00
1056,00	3117,00
1056,42	3163,00
1056,85	3126,00
1057,27	3139,00
1057,70	3066,00
1058,12	3294,00
1058,54	3018,00
1058,97	3076,00
1059,39	3089,00
1059,82	3028,00
1060,24	3010,00
1060,67	3031,00
1061,09	3074,00
1061,51	3020,00
1061,94	3016,00
1062,36	3079,00
1062,79	3155,00
1063,21	3063,00
1063,64	3055,00
1064,06	3029,00
1064,48	3081,00
1064,91	3118,00
1065,33	3037,00
1065,76	2990,00
1066,18	2978,00
1066,60	3106,00
1067,03	3075,00
1067,45	3035,00
1067,87	3061,00
1068,30	3023,00
1068,72	3139,00
1069,15	3038,00
1069,57	3022,00
1069,99	2974,00
1070,42	3092,00
1070,84	3126,00
1071,26	3104,00
1071,69	3032,00
1072,11	3073,00
1072,53	3050,00
1072,96	3008,00
1073,38	2970,00
1073,80	3066,00
1074,23	3025,00
1074,65	2962,00
1075,07	3025,00
1075,50	3021,00
1075,92	3065,00
1076,34	3019,00
1076,77	3024,00
1077,19	3015,00
1077,61	3107,00
1078,04	3004,00
1078,46	3094,00
1078,88	3164,00
1079,30	2959,00
1079,73	3098,00
1080,15	3013,00
1080,57	3044,00
1081,00	3065,00
1081,42	3063,00
1081,84	3004,00
1082,26	3069,00
1082,69	3016,00
1083,11	3038,00
1083,53	3056,00
1083,95	3038,00
1084,38	3125,00
1084,80	3050,00
1085,22	3058,00
1085,64	3104,00
1086,07	3012,00
1086,49	3001,00
1086,91	3069,00
1087,33	2970,00
1087,76	3066,00
1088,18	4806,00
1088,60	3065,00
1089,02	3017,00
1089,45	3015,00
1089,87	3022,00
1090,29	3106,00
1090,71	3041,00
1091,13	2990,00
1091,56	3041,00
1091,98	3023,00
1092,40	3002,00
1092,82	3062,00
1093,24	3004,00
1093,66	3035,00
1094,09	3014,00
1094,51	3022,00
1094,93	3029,00
1095,35	3022,00
1095,77	2981,00
1096,19	3039,00
1096,62	3085,00
1097,04	2985,00
1097,46	3057,00
1097,88	3047,00
1098,30	3050,00
1098,72	3056,00
1099,15	3089,00
1099,57	3052,00
1099,99	3017,00
1100,41	3006,00
1100,83	3036,00
1101,25	2968,00
1101,67	3033,00
1102,09	3006,00
1102,52	3015,00
1102,94	3034,00
1103,36	3045,00
1103,78	3046,00
1104,20	2986,00
1104,62	3115,00
1105,04	2951,00
1105,46	3046,00
1105,88	3015,00
1106,30	3004,00
1106,73	3029,00
1107,15	2947,00
1107,57	2955,00
1107,99	3097,00
1108,41	2943,00
1108,83	3071,00
1109,25	3051,00
1109,67	3047,00
1110,09	2951,00
1110,51	3008,00
1110,93	2930,00
1111,35	2982,00
1111,77	2938,00
1112,19	2978,00
1112,61	2936,00
1113,03	3005,00
1113,45	2943,00
1113,87	2995,00
1114,29	3018,00
1114,71	3039,00
1115,13	2971,00
1115,55	2988,00
1115,98	2991,00
1116,40	3043,00
1116,82	3047,00
1117,24	3005,00
1117,66	2941,00
1118,08	2163,00
1118,50	2188,00
1118,91	2183,00
1119,33	2179,00