SpectraSuite Data File
++++++++++++++++++++++++++++++++++++
Date: Tue Jul 12 15:17:02 EEST 2011
User: OO Maya
Dark Spectrum Present: No
Reference Spectrum Present: No
Number of Sampled Component Spectra: 1
Spectrometers: MAYP11278
Integration Time (usec): 300000 (MAYP11278)
Spectra Averaged: 40 (MAYP11278)
Boxcar Smoothing: 0 (MAYP11278)
Correct for Electrical Dark: No (MAYP11278)
Strobe/Lamp Enabled: No (MAYP11278)
Correct for Detector Non-linearity: No (MAYP11278)
Correct for Stray Light: No (MAYP11278)
Number of Pixels in Processed Spectrum: 2068
>>>>>Begin Processed Spectral Data<<<<<
200,00	3398,00
200,47	2983,10
200,95	2981,98
201,42	2980,48
201,89	3429,40
202,37	3452,50
202,84	3427,22
203,31	3435,72
203,79	3461,68
204,26	3422,88
204,73	3413,98
205,20	3401,62
205,68	3428,00
206,15	3423,35
206,62	3447,48
207,10	3423,82
207,57	3460,50
208,04	3424,65
208,51	3430,92
208,99	3512,85
209,46	3435,02
209,93	3411,30
210,41	3422,15
210,88	3413,78
211,35	3437,42
211,82	3456,08
212,30	3422,10
212,77	3430,92
213,24	3459,10
213,71	3455,42
214,19	3454,30
214,66	3409,85
215,13	3451,38
215,60	3410,90
216,08	3461,20
216,55	3473,42
217,02	3429,15
217,49	3422,12
217,96	3474,82
218,44	3427,60
218,91	3451,22
219,38	3523,85
219,85	3444,85
220,33	3458,42
220,80	3431,80
221,27	3465,10
221,74	3457,78
222,21	3439,90
222,69	3438,98
223,16	3459,58
223,63	3438,60
224,10	3426,82
224,57	3500,68
225,04	3457,35
225,52	3426,65
225,99	3501,38
226,46	3453,68
226,93	3482,38
227,40	3456,75
227,87	3458,45
228,35	3466,90
228,82	3456,52
229,29	3430,68
229,76	3434,75
230,23	3481,90
230,70	3406,00
231,18	3426,88
231,65	3429,72
232,12	3457,45
232,59	3490,92
233,06	3428,75
233,53	3472,68
234,00	3422,65
234,48	3472,22
234,95	3431,15
235,42	3468,08
235,89	3451,48
236,36	3429,98
236,83	3424,72
237,30	3444,90
237,77	3432,18
238,24	3444,52
238,72	3476,00
239,19	3442,45
239,66	3463,02
240,13	3464,58
240,60	3466,78
241,07	3444,60
241,54	3443,98
242,01	3433,50
242,48	3467,50
242,95	3485,55
243,42	3454,92
243,90	3453,18
244,37	3426,32
244,84	3452,00
245,31	3458,35
245,78	3554,28
246,25	3460,00
246,72	3428,22
247,19	3431,92
247,66	3418,42
248,13	3476,22
248,60	3510,05
249,07	3434,22
249,54	3462,60
250,01	3454,78
250,48	3451,90
250,95	3447,72
251,42	3420,00
251,89	3463,18
252,36	3493,08
252,83	3454,95
253,30	3440,95
253,77	3474,80
254,24	3484,10
254,71	3419,58
255,18	3428,78
255,65	3477,12
256,12	3495,80
256,59	3453,62
257,06	3487,60
257,53	3477,48
258,00	3432,02
258,47	3449,62
258,94	3457,15
259,41	3457,35
259,88	3464,30
260,35	3406,42
260,82	3452,62
261,29	3475,70
261,76	3460,35
262,23	3492,42
262,70	3455,85
263,17	3506,28
263,64	3491,18
264,11	3432,15
264,58	3484,88
265,05	3463,18
265,52	3445,88
265,99	3463,20
266,46	3467,10
266,93	3478,05
267,40	3437,82
267,87	3461,98
268,34	3468,62
268,81	3475,95
269,28	3549,98
269,74	3463,70
270,21	3436,42
270,68	3462,52
271,15	3473,10
271,62	3502,02
272,09	3448,00
272,56	3428,08
273,03	3498,32
273,50	3426,40
273,97	3462,90
274,44	3462,12
274,90	3422,05
275,37	3480,82
275,84	3486,40
276,31	3438,60
276,78	3459,55
277,25	3465,55
277,72	3476,20
278,19	3446,10
278,66	3450,62
279,12	3458,85
279,59	3466,02
280,06	3406,05
280,53	3429,92
281,00	3441,92
281,47	3471,30
281,94	3486,38
282,40	3441,60
282,87	3462,85
283,34	3415,92
283,81	3425,75
284,28	3403,02
284,75	3456,70
285,21	3565,70
285,68	3482,15
286,15	3477,22
286,62	3434,05
287,09	3444,90
287,56	3473,68
288,02	3475,88
288,49	3428,08
288,96	3448,40
289,43	3422,02
289,90	3582,50
290,36	3445,22
290,83	3432,55
291,30	3573,25
291,77	3481,62
292,24	3546,12
292,70	3438,62
293,17	3486,25
293,64	3444,28
294,11	3447,60
294,58	3474,42
295,04	3438,98
295,51	3424,95
295,98	3479,92
296,45	3447,20
296,91	3460,62
297,38	3463,10
297,85	3417,65
298,32	3468,08
298,79	3506,98
299,25	3440,92
299,72	3475,22
300,19	3405,72
300,66	3494,52
301,12	3430,38
301,59	3459,52
302,06	3442,32
302,52	3477,18
302,99	3523,85
303,46	3438,70
303,93	3496,10
304,39	3437,65
304,86	3476,00
305,33	3468,50
305,80	3431,82
306,26	3456,22
306,73	3462,48
307,20	3512,95
307,66	3505,35
308,13	3477,05
308,60	3469,45
309,07	3473,70
309,53	3441,42
310,00	3509,50
310,47	3450,40
310,93	3471,92
311,40	3440,95
311,87	3485,90
312,33	3478,72
312,80	3485,30
313,27	3430,75
313,73	3479,85
314,20	3487,30
314,67	3430,85
315,13	3442,55
315,60	3434,05
316,07	3463,98
316,53	3468,90
317,00	3460,52
317,47	3477,12
317,93	3436,78
318,40	3444,50
318,87	3461,05
319,33	3449,62
319,80	3482,50
320,26	3488,30
320,73	3468,25
321,20	3475,50
321,66	3474,25
322,13	3445,60
322,60	3482,85
323,06	3458,18
323,53	3523,12
323,99	3440,00
324,46	3452,68
324,93	3464,70
325,39	3438,18
325,86	3438,88
326,32	3481,18
326,79	3466,92
327,26	3466,52
327,72	3473,75
328,19	3466,18
328,65	3550,08
329,12	3461,40
329,59	3455,50
330,05	3426,08
330,52	3472,52
330,98	3515,55
331,45	3477,85
331,91	3455,25
332,38	3408,98
332,85	3421,60
333,31	3515,02
333,78	3445,72
334,24	3465,95
334,71	3426,60
335,17	3463,68
335,64	3451,50
336,10	3442,40
336,57	3445,58
337,03	3442,05
337,50	3470,20
337,96	3473,58
338,43	3474,85
338,90	3467,20
339,36	3446,98
339,83	3451,58
340,29	3447,55
340,76	3435,05
341,22	3480,12
341,69	3466,88
342,15	3517,15
342,62	3433,90
343,08	3521,08
343,55	3479,02
344,01	3470,75
344,48	3494,90
344,94	3465,42
345,41	3473,92
345,87	3575,40
346,34	3421,60
346,80	3453,70
347,27	3441,98
347,73	3470,65
348,19	3444,15
348,66	3444,62
349,12	3514,98
349,59	3485,80
350,05	3427,70
350,52	3436,25
350,98	3433,65
351,45	3472,58
351,91	3487,60
352,38	3447,75
352,84	3464,90
353,30	3478,58
353,77	3468,92
354,23	3446,92
354,70	3457,45
355,16	3430,75
355,63	3460,48
356,09	3475,10
356,55	3445,75
357,02	3433,90
357,48	3502,90
357,95	3438,55
358,41	3489,32
358,87	3465,38
359,34	3417,78
359,80	3467,92
360,27	3480,28
360,73	3460,32
361,19	3440,75
361,66	3472,25
362,12	3510,12
362,59	3470,55
363,05	3449,92
363,51	3459,80
363,98	3471,68
364,44	3468,82
364,91	3477,55
365,37	3467,68
365,83	3513,35
366,30	3440,05
366,76	3505,18
367,22	3433,52
367,69	3535,88
368,15	3480,78
368,61	3420,58
369,08	3428,48
369,54	3440,90
370,00	3450,58
370,47	3485,78
370,93	3497,42
371,39	3442,38
371,86	3457,55
372,32	3457,82
372,78	3447,40
373,25	3466,50
373,71	3531,38
374,17	3472,32
374,64	3438,00
375,10	3473,30
375,56	3443,60
376,03	3424,02
376,49	3466,38
376,95	3454,42
377,42	3460,22
377,88	3418,50
378,34	3423,50
378,80	3484,02
379,27	3420,80
379,73	3486,10
380,19	3464,78
380,66	3445,42
381,12	3439,80
381,58	3475,50
382,04	3436,55
382,51	3416,18
382,97	3455,55
383,43	3461,62
383,89	3423,20
384,36	3432,12
384,82	3464,80
385,28	3410,32
385,74	3493,45
386,21	3442,75
386,67	3427,40
387,13	3423,35
387,59	3462,18
388,06	3457,32
388,52	3456,48
388,98	3453,15
389,44	3447,25
389,91	3476,30
390,37	3500,75
390,83	3457,02
391,29	3499,95
391,75	3498,02
392,22	3418,48
392,68	3463,68
393,14	3448,48
393,60	3484,15
394,06	3460,98
394,53	3618,52
394,99	3463,42
395,45	3445,22
395,91	3451,20
396,37	3514,62
396,84	3429,18
397,30	3418,35
397,76	3482,92
398,22	3467,85
398,68	3494,18
399,14	3435,12
399,61	3480,32
400,07	3461,62
400,53	3472,52
400,99	3472,15
401,45	3458,12
401,91	3468,68
402,38	3444,45
402,84	3445,95
403,30	3539,72
403,76	3453,60
404,22	3496,60
404,68	3436,90
405,14	3477,50
405,61	3610,65
406,07	3424,15
406,53	3474,18
406,99	3483,55
407,45	3424,50
407,91	3454,62
408,37	3440,42
408,83	3425,25
409,29	3483,40
409,76	3420,15
410,22	3455,78
410,68	3438,15
411,14	3471,92
411,60	3463,78
412,06	3455,38
412,52	3434,30
412,98	3496,92
413,44	3458,22
413,90	3495,70
414,36	3511,85
414,83	3491,60
415,29	3426,80
415,75	3481,02
416,21	3468,72
416,67	3517,35
417,13	3452,30
417,59	3464,30
418,05	3474,65
418,51	3425,25
418,97	3491,78
419,43	3422,90
419,89	3494,85
420,35	3431,08
420,81	3492,25
421,27	3429,85
421,73	3410,28
422,19	3476,30
422,65	3443,68
423,11	3466,62
423,57	3469,28
424,03	3504,22
424,49	3449,80
424,96	3513,95
425,42	3466,82
425,88	3461,82
426,34	3516,00
426,80	3464,55
427,26	3459,40
427,72	3466,72
428,18	3458,52
428,64	3477,92
429,10	3436,78
429,56	3477,82
430,02	3430,88
430,47	3458,62
430,93	3440,38
431,39	3463,68
431,85	3438,88
432,31	3453,28
432,77	3465,10
433,23	3488,75
433,69	3453,65
434,15	3484,28
434,61	3450,72
435,07	3498,72
435,53	3444,30
435,99	3493,40
436,45	3477,82
436,91	3489,95
437,37	3428,98
437,83	3487,12
438,29	3470,82
438,75	3458,95
439,21	3462,62
439,67	3563,05
440,12	3423,88
440,58	3447,10
441,04	3503,45
441,50	3492,72
441,96	3453,40
442,42	3442,32
442,88	3463,20
443,34	3444,98
443,80	3477,10
444,26	3421,12
444,72	3476,28
445,17	3456,02
445,63	3420,62
446,09	3479,40
446,55	3469,68
447,01	3463,45
447,47	3439,88
447,93	3450,88
448,39	3585,25
448,85	3468,92
449,30	3482,10
449,76	3491,60
450,22	3431,40
450,68	3447,68
451,14	3540,42
451,60	3417,85
452,06	3457,68
452,51	3460,82
452,97	3424,00
453,43	3510,40
453,89	3464,45
454,35	3453,60
454,81	3457,48
455,26	3465,32
455,72	3445,88
456,18	3463,40
456,64	3437,85
457,10	3436,58
457,56	3472,92
458,01	3471,80
458,47	3452,22
458,93	3433,00
459,39	3434,88
459,85	3444,40
460,30	3458,55
460,76	3477,30
461,22	3426,85
461,68	3487,10
462,14	3450,02
462,59	3450,12
463,05	3456,55
463,51	3477,10
463,97	3444,80
464,43	3458,70
464,88	3484,68
465,34	3440,40
465,80	3503,05
466,26	3447,12
466,71	3450,92
467,17	3416,25
467,63	3458,15
468,09	3457,02
468,54	3456,72
469,00	3437,85
469,46	3425,92
469,92	3499,02
470,37	3480,42
470,83	3431,48
471,29	3422,00
471,75	3492,60
472,20	3442,72
472,66	3458,52
473,12	3457,68
473,58	3429,42
474,03	3444,20
474,49	3478,65
474,95	3459,18
475,40	3469,72
475,86	3475,32
476,32	3453,12
476,78	3462,70
477,23	3469,00
477,69	3457,78
478,15	3434,40
478,60	3471,05
479,06	3460,30
479,52	3440,68
479,97	3449,90
480,43	3433,62
480,89	3440,32
481,34	3447,92
481,80	3500,75
482,26	3455,78
482,71	3434,00
483,17	3452,00
483,63	3421,20
484,08	3475,30
484,54	3451,90
485,00	3465,00
485,45	3446,18
485,91	3457,75
486,37	3499,60
486,82	3465,00
487,28	3488,98
487,74	3433,38
488,19	3510,60
488,65	3473,92
489,10	3448,35
489,56	3439,62
490,02	3451,80
490,47	3456,10
490,93	3427,38
491,39	3451,35
491,84	3416,38
492,30	3452,82
492,75	3502,65
493,21	3468,90
493,67	3457,52
494,12	3408,68
494,58	3447,78
495,03	3411,32
495,49	3466,22
495,95	3421,88
496,40	3422,22
496,86	3436,50
497,31	3464,60
497,77	3455,85
498,23	3484,85
498,68	3424,98
499,14	3458,05
499,59	3421,45
500,05	3434,95
500,50	3409,10
500,96	3481,80
501,41	3464,58
501,87	3452,80
502,33	3431,20
502,78	3449,30
503,24	3439,92
503,69	3426,95
504,15	3466,20
504,60	3434,30
505,06	3448,00
505,51	3510,28
505,97	3489,50
506,42	3436,80
506,88	3457,05
507,33	3440,92
507,79	3528,40
508,24	3454,28
508,70	3433,15
509,15	3451,30
509,61	3440,85
510,06	3469,78
510,52	3452,50
510,97	3455,05
511,43	3447,22
511,88	3463,62
512,34	3444,42
512,79	3464,42
513,25	3463,42
513,70	3429,30
514,16	3451,32
514,61	3479,00
515,07	3447,25
515,52	3469,80
515,98	3459,15
516,43	3434,32
516,89	3429,95
517,34	3414,82
517,80	3442,38
518,25	3448,25
518,70	3430,10
519,16	3494,40
519,61	3493,15
520,07	3427,78
520,52	3410,48
520,98	3435,58
521,43	3464,18
521,89	3401,52
522,34	3487,58
522,79	3502,32
523,25	3408,28
523,70	3458,60
524,16	3483,38
524,61	3482,98
525,06	3543,10
525,52	3464,85
525,97	3452,65
526,43	3579,12
526,88	3444,65
527,33	3432,18
527,79	3420,75
528,24	3430,18
528,70	3466,08
529,15	3470,52
529,60	3473,72
530,06	3456,75
530,51	3420,82
530,97	3512,95
531,42	3476,35
531,87	3444,95
532,33	3505,78
532,78	3469,35
533,23	3477,68
533,69	3492,05
534,14	3465,68
534,59	3451,82
535,05	3451,80
535,50	3445,48
535,96	3479,12
536,41	3465,10
536,86	3445,38
537,32	3426,52
537,77	3473,15
538,22	3473,68
538,68	3422,65
539,13	3486,38
539,58	3454,65
540,03	3453,22
540,49	3454,50
540,94	3470,50
541,39	3446,28
541,85	3427,12
542,30	3451,90
542,75	3438,12
543,21	3458,20
543,66	3433,72
544,11	3473,38
544,57	3427,40
545,02	3471,52
545,47	3452,32
545,92	3449,38
546,38	3506,45
546,83	3469,12
547,28	3633,70
547,73	3418,35
548,19	3508,15
548,64	3460,65
549,09	3422,40
549,55	3468,22
550,00	3463,42
550,45	3440,40
550,90	3544,60
551,36	3418,28
551,81	3520,02
552,26	3480,20
552,71	3456,52
553,17	3446,98
553,62	3480,25
554,07	3460,90
554,52	3466,55
554,97	3476,85
555,43	3463,32
555,88	3454,22
556,33	3444,70
556,78	3436,98
557,24	3525,08
557,69	3445,68
558,14	3423,05
558,59	3466,98
559,04	3456,58
559,50	3518,00
559,95	3460,45
560,40	3430,60
560,85	3473,50
561,30	3448,42
561,76	3431,05
562,21	3463,12
562,66	3456,78
563,11	3514,60
563,56	3454,65
564,01	3501,30
564,47	3409,48
564,92	3457,92
565,37	3524,38
565,82	3441,30
566,27	3444,52
566,72	3432,65
567,18	3434,55
567,63	3427,40
568,08	3455,60
568,53	3447,30
568,98	3450,35
569,43	3440,62
569,88	3434,70
570,34	3458,40
570,79	3487,40
571,24	3431,08
571,69	3462,52
572,14	3443,20
572,59	3445,88
573,04	3458,68
573,49	3494,95
573,94	3448,40
574,40	3435,85
574,85	3460,78
575,30	3482,45
575,75	3442,10
576,20	3450,52
576,65	3483,85
577,10	3453,82
577,55	3448,88
578,00	3475,42
578,45	3472,58
578,91	3455,20
579,36	3463,48
579,81	3471,72
580,26	3436,82
580,71	3438,75
581,16	3458,22
581,61	3489,72
582,06	3479,78
582,51	3419,78
582,96	3468,45
583,41	3399,75
583,86	3492,25
584,31	3441,80
584,76	3446,00
585,21	3427,52
585,66	3491,98
586,11	3466,18
586,56	3440,15
587,01	3463,28
587,46	3467,08
587,92	3450,02
588,37	3455,35
588,82	3463,30
589,27	3453,75
589,72	3417,15
590,17	3451,88
590,62	3464,68
591,07	3442,68
591,52	3470,35
591,97	3434,65
592,42	3536,58
592,87	3442,72
593,32	3441,32
593,77	3445,35
594,22	3453,65
594,67	3483,00
595,12	3427,62
595,56	3467,12
596,01	3446,10
596,46	3432,70
596,91	3473,20
597,36	3475,65
597,81	3437,92
598,26	3415,62
598,71	3495,90
599,16	3443,02
599,61	3465,12
600,06	3446,58
600,51	3479,60
600,96	3453,90
601,41	3454,42
601,86	3498,05
602,31	3442,60
602,76	3435,60
603,21	3498,32
603,66	3478,62
604,11	3493,62
604,55	3460,62
605,00	3420,58
605,45	3450,42
605,90	3492,50
606,35	3433,72
606,80	3465,18
607,25	3492,18
607,70	3468,00
608,15	3482,55
608,60	3417,10
609,04	3559,20
609,49	3439,70
609,94	3462,30
610,39	3417,78
610,84	3412,62
611,29	3468,32
611,74	3447,75
612,19	3474,25
612,64	3455,85
613,08	3411,50
613,53	3450,48
613,98	3450,58
614,43	3456,15
614,88	3471,08
615,33	3455,10
615,78	3535,60
616,22	3479,92
616,67	3448,60
617,12	3443,58
617,57	3463,35
618,02	3418,25
618,47	3512,18
618,91	3468,85
619,36	3459,08
619,81	3556,80
620,26	3423,00
620,71	3422,20
621,16	3414,50
621,60	3414,90
622,05	3449,55
622,50	3452,15
622,95	3424,22
623,40	3450,20
623,84	3455,52
624,29	3478,10
624,74	3433,15
625,19	3439,02
625,64	3444,08
626,08	3477,12
626,53	3441,68
626,98	3480,65
627,43	3493,52
627,87	3450,22
628,32	3482,08
628,77	3497,08
629,22	3486,42
629,66	3437,52
630,11	3433,32
630,56	3493,00
631,01	3426,50
631,46	3445,82
631,90	3462,58
632,35	3433,82
632,80	3449,00
633,25	3456,40
633,69	3433,45
634,14	3472,60
634,59	3474,15
635,03	3408,35
635,48	3448,00
635,93	3457,90
636,38	3433,92
636,82	3471,52
637,27	3447,62
637,72	3475,15
638,16	3468,00
638,61	3496,68
639,06	3433,28
639,51	3441,98
639,95	3427,42
640,40	3434,70
640,85	3421,52
641,29	3445,65
641,74	3430,30
642,19	3415,38
642,63	3443,22
643,08	3447,22
643,53	3432,45
643,97	3474,40
644,42	3478,65
644,87	3435,12
645,31	3456,00
645,76	3423,80
646,21	3413,38
646,65	3462,72
647,10	3482,88
647,55	3418,12
647,99	3435,10
648,44	3439,42
648,89	3405,42
649,33	3436,30
649,78	3472,50
650,23	3436,18
650,67	3420,65
651,12	3437,70
651,56	3424,55
652,01	3457,02
652,46	3456,55
652,90	3461,30
653,35	3471,92
653,80	3459,18
654,24	3463,88
654,69	3425,28
655,13	3487,80
655,58	3466,12
656,03	3590,58
656,47	3422,85
656,92	3421,48
657,36	3432,12
657,81	3450,75
658,26	3421,80
658,70	3450,15
659,15	3434,30
659,59	3433,30
660,04	3450,20
660,48	3457,02
660,93	3435,85
661,38	3420,82
661,82	3470,48
662,27	3426,65
662,71	3448,32
663,16	3465,88
663,60	3474,18
664,05	3430,60
664,49	3456,40
664,94	3421,90
665,38	3593,95
665,83	3429,80
666,28	3483,90
666,72	3443,30
667,17	3425,78
667,61	3449,52
668,06	3419,52
668,50	3406,08
668,95	3463,48
669,39	3433,22
669,84	3432,62
670,28	3441,20
670,73	3416,70
671,17	3451,12
671,62	3421,65
672,06	3456,98
672,51	3453,32
672,95	3541,12
673,40	3497,45
673,84	3422,98
674,29	3453,75
674,73	3422,55
675,18	3521,05
675,62	3399,65
676,07	3422,80
676,51	3489,25
676,95	3441,80
677,40	3497,60
677,84	3525,95
678,29	3452,62
678,73	3453,12
679,18	3489,12
679,62	3560,15
680,07	3462,42
680,51	3459,78
680,96	3405,72
681,40	3415,35
681,84	3445,58
682,29	3443,72
682,73	3444,20
683,18	3442,48
683,62	3543,32
684,07	3427,40
684,51	3437,10
684,95	3456,35
685,40	3433,65
685,84	3447,38
686,29	3447,30
686,73	3396,25
687,17	3400,12
687,62	3435,80
688,06	3455,28
688,51	3471,95
688,95	3467,45
689,39	3461,15
689,84	3494,52
690,28	3459,12
690,73	3460,18
691,17	3468,42
691,61	3439,48
692,06	3422,75
692,50	3450,12
692,94	3430,50
693,39	3450,02
693,83	3436,30
694,27	3542,50
694,72	3467,35
695,16	3407,20
695,60	3444,50
696,05	3441,55
696,49	3413,75
696,94	3450,42
697,38	3415,22
697,82	3443,20
698,27	3437,45
698,71	3469,10
699,15	3462,52
699,59	3449,10
700,04	3445,50
700,48	3599,45
700,92	3454,25
701,37	3453,35
701,81	3510,20
702,25	3447,15
702,70	3429,35
703,14	3461,52
703,58	3426,52
704,03	3478,90
704,47	3475,50
704,91	3428,08
705,35	3435,58
705,80	3471,35
706,24	3476,82
706,68	3584,60
707,13	3410,65
707,57	3492,78
708,01	3423,88
708,45	3431,98
708,90	3455,82
709,34	3444,42
709,78	3435,42
710,22	3491,85
710,67	3481,70
711,11	3481,55
711,55	3413,35
711,99	3468,68
712,44	3443,95
712,88	3442,42
713,32	3467,08
713,76	3475,22
714,21	3453,60
714,65	3430,30
715,09	3446,72
715,53	3445,72
715,97	3430,05
716,42	3470,40
716,86	3455,00
717,30	3449,48
717,74	3420,40
718,18	3520,88
718,63	3445,00
719,07	3458,10
719,51	3501,02
719,95	3480,65
720,39	3445,15
720,84	3457,52
721,28	3434,32
721,72	3440,65
722,16	3415,25
722,60	3406,78
723,04	3466,05
723,49	3505,18
723,93	3423,00
724,37	3418,70
724,81	3449,55
725,25	3442,88
725,69	3429,18
726,14	3455,80
726,58	3425,85
727,02	3459,70
727,46	3446,05
727,90	3417,48
728,34	3403,60
728,78	3453,35
729,23	3404,70
729,67	3469,18
730,11	3406,58
730,55	3444,00
730,99	3443,25
731,43	3449,50
731,87	3512,00
732,31	3424,72
732,76	3495,05
733,20	3463,38
733,64	3440,08
734,08	3485,52
734,52	3432,15
734,96	3472,38
735,40	3413,35
735,84	3451,15
736,28	3461,70
736,72	3454,32
737,16	3452,22
737,61	3423,22
738,05	3464,05
738,49	3459,50
738,93	3426,95
739,37	3468,70
739,81	3462,45
740,25	3444,05
740,69	3543,62
741,13	3426,50
741,57	3461,25
742,01	3472,50
742,45	3467,82
742,89	3443,30
743,33	3432,90
743,77	3446,02
744,21	3415,20
744,65	3484,88
745,09	3459,60
745,53	3419,02
745,98	3467,95
746,42	3465,95
746,86	3446,60
747,30	3449,72
747,74	3422,18
748,18	3422,58
748,62	3444,78
749,06	3487,62
749,50	3475,70
749,94	3454,15
750,38	3477,95
750,82	3500,80
751,26	3397,12
751,70	3423,05
752,14	3410,05
752,58	3465,72
753,02	3439,60
753,45	3433,08
753,89	3458,40
754,33	3546,30
754,77	3445,90
755,21	3442,98
755,65	3416,62
756,09	3429,90
756,53	3433,88
756,97	3442,95
757,41	3509,88
757,85	3427,02
758,29	3441,90
758,73	3406,20
759,17	3433,48
759,61	3419,60
760,05	3444,98
760,49	3451,15
760,93	3483,40
761,37	3433,75
761,80	3493,05
762,24	3446,32
762,68	3439,58
763,12	3438,12
763,56	3435,52
764,00	3415,30
764,44	3433,58
764,88	3456,78
765,32	3442,42
765,76	3464,12
766,20	3484,48
766,63	3438,72
767,07	3413,82
767,51	3435,58
767,95	3473,10
768,39	3443,18
768,83	3416,00
769,27	3430,52
769,71	3462,12
770,14	3421,40
770,58	3413,45
771,02	3426,10
771,46	3443,65
771,90	3447,42
772,34	3453,68
772,78	3474,35
773,21	3442,52
773,65	3513,58
774,09	3424,78
774,53	3442,95
774,97	3421,22
775,41	3416,40
775,84	3463,90
776,28	3445,20
776,72	3457,58
777,16	3413,10
777,60	3437,75
778,04	3439,40
778,47	3395,12
778,91	3442,78
779,35	3420,32
779,79	3455,95
780,23	3447,42
780,66	3414,12
781,10	3434,22
781,54	3438,98
781,98	3468,68
782,42	3456,00
782,85	3435,92
783,29	3455,50
783,73	3543,52
784,17	3493,40
784,61	3441,22
785,04	3483,88
785,48	3462,15
785,92	3421,05
786,36	3453,20
786,79	3418,78
787,23	3438,82
787,67	3464,72
788,11	3475,10
788,54	3445,25
788,98	3430,12
789,42	3439,42
789,86	3427,78
790,29	3468,82
790,73	3471,58
791,17	3482,58
791,60	3417,12
792,04	3428,20
792,48	3456,80
792,92	3419,58
793,35	3437,52
793,79	3428,22
794,23	3448,12
794,67	3423,55
795,10	3428,42
795,54	3478,80
795,98	3439,30
796,41	3449,90
796,85	3431,90
797,29	3591,68
797,72	3480,38
798,16	3446,58
798,60	3460,05
799,03	3451,68
799,47	3418,72
799,91	3455,50
800,34	3442,55
800,78	3449,02
801,22	3432,25
801,65	3419,20
802,09	3439,15
802,53	3482,50
802,96	3453,52
803,40	3421,20
803,84	3502,65
804,27	3454,85
804,71	3426,15
805,15	3456,05
805,58	3449,05
806,02	3426,35
806,46	3473,82
806,89	3503,42
807,33	3469,62
807,76	3455,70
808,20	3444,50
808,64	3433,55
809,07	3506,65
809,51	3522,20
809,95	3503,95
810,38	3476,15
810,82	3514,20
811,25	3437,38
811,69	3451,98
812,13	3423,00
812,56	3461,70
813,00	3443,90
813,43	3428,10
813,87	3419,28
814,30	3459,78
814,74	3494,22
815,18	3571,28
815,61	3437,22
816,05	3423,70
816,48	3469,05
816,92	3516,92
817,35	3478,20
817,79	3455,75
818,23	3474,38
818,66	3466,28
819,10	3455,15
819,53	3431,50
819,97	3430,20
820,40	3430,72
820,84	3470,30
821,27	3453,85
821,71	3483,62
822,14	3435,88
822,58	3461,82
823,01	3486,80
823,45	3440,70
823,88	3461,15
824,32	3430,85
824,75	3450,82
825,19	3427,20
825,63	3495,90
826,06	3423,28
826,50	3450,35
826,93	3453,40
827,37	3423,12
827,80	3450,55
828,23	3439,25
828,67	3457,40
829,10	3459,00
829,54	3418,30
829,97	3438,32
830,41	3403,25
830,84	3443,72
831,28	3467,95
831,71	3485,70
832,15	3426,05
832,58	3472,45
833,02	3459,32
833,45	3431,55
833,89	3506,10
834,32	3438,12
834,75	3527,48
835,19	3479,48
835,62	3466,82
836,06	3412,40
836,49	3441,62
836,93	3439,90
837,36	3474,52
837,79	3470,20
838,23	3445,25
838,66	3428,25
839,10	3478,48
839,53	3443,00
839,97	3456,62
840,40	3440,38
840,83	3478,12
841,27	3424,18
841,70	3436,65
842,14	3458,88
842,57	3443,28
843,00	3494,58
843,44	3524,00
843,87	3454,02
844,31	3486,42
844,74	3400,90
845,17	3420,12
845,61	3420,85
846,04	3434,38
846,47	3468,90
846,91	3450,80
847,34	3464,15
847,77	3446,45
848,21	3427,82
848,64	3465,12
849,08	3442,68
849,51	3478,82
849,94	3430,72
850,38	3421,98
850,81	3445,50
851,24	3426,62
851,68	3438,22
852,11	3432,58
852,54	3461,48
852,98	3484,55
853,41	3465,45
853,84	3436,85
854,28	3488,38
854,71	3425,80
855,14	3460,02
855,57	3484,35
856,01	3429,20
856,44	3433,88
856,87	3468,72
857,31	3411,98
857,74	3471,70
858,17	3415,38
858,61	3425,98
859,04	3476,70
859,47	3498,80
859,90	3444,35
860,34	3466,05
860,77	3445,52
861,20	3420,82
861,63	3487,12
862,07	3399,48
862,50	3421,78
862,93	3438,12
863,37	3443,90
863,80	3452,60
864,23	3469,78
864,66	3425,50
865,10	3442,25
865,53	3463,82
865,96	3423,92
866,39	3437,78
866,82	3467,00
867,26	3424,45
867,69	3448,88
868,12	3438,92
868,55	3411,52
868,99	3442,40
869,42	3405,72
869,85	3467,28
870,28	3418,25
870,71	3452,88
871,15	3442,88
871,58	3432,40
872,01	3461,58
872,44	3448,48
872,87	3490,68
873,31	3531,55
873,74	3419,32
874,17	3442,15
874,60	3454,75
875,03	3426,92
875,47	3446,82
875,90	3461,95
876,33	3438,58
876,76	3479,18
877,19	3460,55
877,62	3434,65
878,06	3422,45
878,49	3481,35
878,92	3398,25
879,35	3460,45
879,78	3439,40
880,21	3446,62
880,64	3446,12
881,08	3440,25
881,51	3458,15
881,94	3438,40
882,37	3506,55
882,80	3423,42
883,23	3420,02
883,66	3440,10
884,09	3447,10
884,53	3465,82
884,96	3445,10
885,39	3433,58
885,82	3441,68
886,25	3432,95
886,68	3418,60
887,11	3466,48
887,54	3447,35
887,97	3457,50
888,40	3474,10
888,84	3438,62
889,27	3423,52
889,70	3503,42
890,13	3414,88
890,56	3425,45
890,99	3439,00
891,42	3427,75
891,85	3561,10
892,28	3412,50
892,71	3475,52
893,14	3428,12
893,57	3465,30
894,00	3462,15
894,43	3407,95
894,86	3422,30
895,29	3434,62
895,73	3418,35
896,16	3429,72
896,59	3454,78
897,02	3432,75
897,45	3459,65
897,88	3433,10
898,31	3417,80
898,74	3448,45
899,17	3456,18
899,60	3422,15
900,03	3420,35
900,46	3427,50
900,89	3450,18
901,32	3476,82
901,75	3425,25
902,18	3422,05
902,61	3421,75
903,04	3466,75
903,47	3460,45
903,90	3432,08
904,33	3509,12
904,76	3519,10
905,19	3429,58
905,62	3432,40
906,05	3501,55
906,48	3417,98
906,91	3454,18
907,34	3427,38
907,76	3438,90
908,19	3412,40
908,62	3478,90
909,05	3442,98
909,48	3473,42
909,91	3457,42
910,34	3438,65
910,77	3458,92
911,20	3496,35
911,63	3433,72
912,06	3407,00
912,49	3453,20
912,92	3450,20
913,35	3437,88
913,78	3426,15
914,21	3437,68
914,63	3447,30
915,06	3431,18
915,49	3459,18
915,92	3454,08
916,35	3436,05
916,78	3409,95
917,21	3414,75
917,64	3434,82
918,07	3426,52
918,50	3471,95
918,92	3432,38
919,35	3485,70
919,78	3432,20
920,21	3468,35
920,64	3422,88
921,07	3441,32
921,50	3439,10
921,93	3461,62
922,35	3470,12
922,78	3443,75
923,21	3491,92
923,64	3464,98
924,07	3427,95
924,50	3414,60
924,92	3408,50
925,35	3451,85
925,78	3495,40
926,21	3465,18
926,64	3407,32
927,07	3466,62
927,49	3421,28
927,92	3464,72
928,35	3518,92
928,78	3435,70
929,21	3460,85
929,64	3409,85
930,06	3524,70
930,49	3446,65
930,92	3413,68
931,35	3474,08
931,78	3428,02
932,20	3456,40
932,63	3470,52
933,06	3429,92
933,49	3462,52
933,92	3400,08
934,34	3506,72
934,77	3477,05
935,20	3538,32
935,63	3439,60
936,05	3475,15
936,48	3475,12
936,91	3463,02
937,34	3458,22
937,76	3413,18
938,19	3434,72
938,62	3428,72
939,05	3450,98
939,47	3417,80
939,90	3462,25
940,33	3428,98
940,76	3433,95
941,18	3461,28
941,61	3415,50
942,04	3445,60
942,47	3470,68
942,89	3517,62
943,32	3432,25
943,75	3477,68
944,17	3422,42
944,60	3434,62
945,03	3467,28
945,46	3415,02
945,88	3411,32
946,31	3465,85
946,74	3436,62
947,16	3462,32
947,59	3444,78
948,02	3446,38
948,44	3452,45
948,87	3485,58
949,30	3435,88
949,72	3446,18
950,15	3464,92
950,58	3411,45
951,00	3414,05
951,43	3418,10
951,86	3533,42
952,28	3485,68
952,71	3433,42
953,14	3437,92
953,56	3459,55
953,99	3413,68
954,42	3471,55
954,84	3431,22
955,27	3508,05
955,70	3405,48
956,12	3425,58
956,55	3435,58
956,98	3425,72
957,40	3433,58
957,83	3457,00
958,25	3414,10
958,68	3464,85
959,11	3551,35
959,53	3410,58
959,96	3456,35
960,38	3449,55
960,81	3431,00
961,24	3424,58
961,66	3426,85
962,09	3392,35
962,51	3432,10
962,94	3465,78
963,37	3455,58
963,79	3474,12
964,22	3469,65
964,64	3429,82
965,07	3447,68
965,49	3435,88
965,92	3450,02
966,35	3437,55
966,77	3424,25
967,20	3471,62
967,62	3430,50
968,05	3436,30
968,47	3457,68
968,90	3420,75
969,32	3426,38
969,75	3479,20
970,17	3593,52
970,60	3466,20
971,03	3444,32
971,45	3452,80
971,88	3420,85
972,30	3428,55
972,73	3458,70
973,15	3427,30
973,58	3443,62
974,00	3412,60
974,43	3420,70
974,85	3430,42
975,28	3457,05
975,70	3437,82
976,13	3465,40
976,55	3448,80
976,98	3424,60
977,40	3428,28
977,83	3425,40
978,25	3443,50
978,68	3414,10
979,10	3467,18
979,53	3447,70
979,95	3436,60
980,37	3439,22
980,80	3428,80
981,22	3474,42
981,65	3458,32
982,07	3428,60
982,50	3456,48
982,92	3474,15
983,35	3438,32
983,77	3439,00
984,20	3430,02
984,62	3430,78
985,04	3426,92
985,47	3472,88
985,89	3468,35
986,32	3416,55
986,74	3397,30
987,17	3435,50
987,59	3463,05
988,01	3431,00
988,44	3421,35
988,86	3454,90
989,29	3439,82
989,71	3443,82
990,13	3436,98
990,56	3449,00
990,98	3439,40
991,41	3427,88
991,83	3452,50
992,25	3440,20
992,68	3447,58
993,10	3492,52
993,53	3434,25
993,95	3416,48
994,37	3439,05
994,80	3429,42
995,22	3433,05
995,64	3454,85
996,07	3467,48
996,49	3447,82
996,91	3445,62
997,34	3407,05
997,76	3415,25
998,18	3397,15
998,61	3481,48
999,03	3467,78
999,45	3433,32
999,88	3450,55
1000,30	3419,12
1000,72	3493,42
1001,15	3447,30
1001,57	3444,92
1001,99	3489,48
1002,42	3418,72
1002,84	3442,52
1003,26	3462,90
1003,69	3441,02
1004,11	3451,98
1004,53	3437,38
1004,96	3460,92
1005,38	3416,85
1005,80	3450,62
1006,22	3455,05
1006,65	3488,32
1007,07	3437,85
1007,49	3413,02
1007,92	3460,20
1008,34	3442,42
1008,76	3421,92
1009,18	3409,05
1009,61	3440,82
1010,03	3432,22
1010,45	3566,10
1010,87	3478,50
1011,30	3467,80
1011,72	3459,58
1012,14	3458,68
1012,56	3472,55
1012,99	3437,45
1013,41	3462,22
1013,83	3455,25
1014,25	3451,90
1014,68	3458,50
1015,10	3416,35
1015,52	3486,02
1015,94	3408,00
1016,37	3476,42
1016,79	3432,65
1017,21	3446,85
1017,63	3419,75
1018,05	3461,72
1018,48	3434,70
1018,90	3431,82
1019,32	3441,70
1019,74	3398,45
1020,16	3546,72
1020,59	3483,85
1021,01	3464,88
1021,43	3433,55
1021,85	3441,75
1022,27	3450,48
1022,69	3450,50
1023,12	3456,80
1023,54	3440,02
1023,96	3566,25
1024,38	3478,30
1024,80	3470,28
1025,22	3459,78
1025,65	3450,68
1026,07	3450,02
1026,49	3471,85
1026,91	3429,22
1027,33	3422,80
1027,75	3526,22
1028,17	3465,78
1028,60	3457,40
1029,02	3444,22
1029,44	3460,08
1029,86	3422,78
1030,28	3518,30
1030,70	3449,08
1031,12	3440,60
1031,54	3455,42
1031,97	3488,00
1032,39	3417,88
1032,81	3449,60
1033,23	3465,22
1033,65	3443,85
1034,07	3474,15
1034,49	3425,85
1034,91	3419,72
1035,33	3458,32
1035,75	3471,75
1036,18	3429,00
1036,60	3499,58
1037,02	3429,70
1037,44	3426,55
1037,86	3457,05
1038,28	3405,40
1038,70	3468,02
1039,12	3471,28
1039,54	3468,60
1039,96	3487,22
1040,38	3494,40
1040,80	3439,38
1041,22	3438,72
1041,64	3458,12
1042,06	3436,48
1042,48	3495,75
1042,90	3491,70
1043,32	3464,92
1043,74	3476,02
1044,17	3448,88
1044,59	3472,48
1045,01	3421,60
1045,43	3441,90
1045,85	3436,50
1046,27	3414,62
1046,69	3453,22
1047,11	3471,42
1047,53	3423,15
1047,95	3457,35
1048,37	3479,05
1048,79	3419,70
1049,21	3476,20
1049,63	3466,88
1050,05	3474,65
1050,47	3437,35
1050,89	3442,92
1051,31	3462,58
1051,72	3466,50
1052,14	3493,92
1052,56	3483,62
1052,98	3447,88
1053,40	3472,95
1053,82	3392,85
1054,24	3447,82
1054,66	3403,58
1055,08	3440,18
1055,50	3430,28
1055,92	3457,08
1056,34	3467,08
1056,76	3507,78
1057,18	3480,05
1057,60	3479,52
1058,02	3453,90
1058,44	3584,00
1058,86	3420,60
1059,28	3467,10
1059,69	3471,08
1060,11	3446,52
1060,53	3437,78
1060,95	3432,05
1061,37	3475,70
1061,79	3448,95
1062,21	3435,32
1062,63	3472,45
1063,05	3499,88
1063,47	3460,60
1063,88	3441,15
1064,30	3431,38
1064,72	3490,52
1065,14	3480,18
1065,56	3440,28
1065,98	3421,30
1066,40	3409,25
1066,82	3474,35
1067,23	3455,98
1067,65	3448,25
1068,07	3455,98
1068,49	3437,55
1068,91	3500,30
1069,33	3460,02
1069,75	3431,15
1070,16	3411,02
1070,58	3484,22
1071,00	3481,62
1071,42	3478,02
1071,84	3438,85
1072,26	3463,78
1072,67	3435,55
1073,09	3421,92
1073,51	3413,15
1073,93	3466,90
1074,35	3431,08
1074,77	3409,68
1075,18	3435,62
1075,60	3438,25
1076,02	3452,80
1076,44	3430,42
1076,86	3421,48
1077,27	3448,52
1077,69	3477,15
1078,11	3434,70
1078,53	3473,15
1078,94	3498,70
1079,36	3397,80
1079,78	3450,48
1080,20	3439,68
1080,62	3446,45
1081,03	3461,90
1081,45	3444,12
1081,87	3436,38
1082,29	3459,38
1082,70	3444,20
1083,12	3442,50
1083,54	3442,22
1083,96	3449,58
1084,37	3476,92
1084,79	3447,30
1085,21	3439,95
1085,63	3488,80
1086,04	3418,68
1086,46	3430,98
1086,88	3457,22
1087,30	3403,12
1087,71	3468,90
1088,13	5109,72
1088,55	3438,12
1088,96	3426,32
1089,38	3437,08
1089,80	3437,95
1090,22	3487,42
1090,63	3438,55
1091,05	3418,35
1091,47	3453,28
1091,88	3436,55
1092,30	3420,58
1092,72	3445,80
1093,13	3431,92
1093,55	3446,18
1093,97	3435,32
1094,38	3445,75
1094,80	3435,52
1095,22	3446,55
1095,63	3428,52
1096,05	3443,55
1096,47	3457,72
1096,88	3416,22
1097,30	3454,15
1097,72	3423,58
1098,13	3462,68
1098,55	3461,45
1098,97	3472,55
1099,38	3435,80
1099,80	3436,75
1100,21	3424,60
1100,63	3431,98
1101,05	3433,58
1101,46	3446,72
1101,88	3415,90
1102,30	3425,85
1102,71	3437,52
1103,13	3438,95
1103,54	3453,78
1103,96	3427,55
1104,38	3495,05
1104,79	3385,65
1105,21	3443,90
1105,62	3439,98
1106,04	3417,52
1106,46	3435,28
1106,87	3387,42
1107,29	3407,50
1107,70	3472,02
1108,12	3398,45
1108,54	3455,20
1108,95	3451,88
1109,37	3450,30
1109,78	3393,48
1110,20	3426,05
1110,61	3398,18
1111,03	3398,18
1111,44	3398,18
1111,86	3398,18
1112,28	3398,18
1112,69	3398,18
1113,11	3398,18
1113,52	3398,18
1113,94	3398,18
1114,35	3398,18
1114,77	3398,18
1115,18	3398,18
1115,60	3398,18
1116,01	3398,18
1116,43	3398,18
1116,84	3398,18
1117,26	3398,18
1117,67	3398,18
1118,09	3398,18
1118,50	3398,18
1118,92	3398,18
>>>>>End Processed Spectral Data<<<<<
