SpectraSuite Data File
++++++++++++++++++++++++++++++++++++
Date: Tue Jul 12 15:28:36 EEST 2011
User: OO Maya
Dark Spectrum Present: No
Reference Spectrum Present: No
Number of Sampled Component Spectra: 1
Spectrometers: MAYP11278
Integration Time (usec): 180000 (MAYP11278)
Spectra Averaged: 40 (MAYP11278)
Boxcar Smoothing: 0 (MAYP11278)
Correct for Electrical Dark: No (MAYP11278)
Strobe/Lamp Enabled: No (MAYP11278)
Correct for Detector Non-linearity: No (MAYP11278)
Correct for Stray Light: No (MAYP11278)
Number of Pixels in Processed Spectrum: 2068
>>>>>Begin Processed Spectral Data<<<<<
200,00	3264,35
200,47	2988,58
200,95	2988,48
201,42	2986,10
201,89	3280,52
202,37	3296,25
202,84	3284,52
203,31	3287,85
203,79	3305,42
204,26	3284,12
204,73	3276,05
205,20	3271,15
205,68	3286,60
206,15	3280,80
206,62	3296,10
207,10	3284,72
207,57	3301,62
208,04	3283,82
208,51	3283,68
208,99	3338,00
209,46	3286,18
209,93	3273,02
210,41	3279,95
210,88	3275,78
211,35	3292,42
211,82	3308,85
212,30	3280,55
212,77	3285,75
213,24	3306,42
213,71	3303,00
214,19	3301,60
214,66	3273,12
215,13	3295,70
215,60	3273,75
216,08	3308,15
216,55	3314,90
217,02	3284,68
217,49	3282,58
217,96	3321,80
218,44	3285,95
218,91	3295,62
219,38	3345,90
219,85	3296,55
220,33	3302,62
220,80	3290,00
221,27	3308,90
221,74	3301,60
222,21	3288,88
222,69	3291,68
223,16	3305,45
223,63	3295,15
224,10	3282,55
224,57	3329,05
225,04	3300,35
225,52	3285,72
225,99	3337,90
226,46	3300,45
226,93	3320,68
227,40	3301,55
227,87	3305,92
228,35	3310,55
228,82	3301,00
229,29	3286,00
229,76	3290,35
230,23	3314,10
230,70	3271,15
231,18	3285,50
231,65	3284,18
232,12	3295,30
232,59	3320,22
233,06	3283,72
233,53	3311,70
234,00	3284,32
234,48	3311,00
234,95	3287,02
235,42	3312,90
235,89	3301,98
236,36	3288,28
236,83	3279,68
237,30	3297,00
237,77	3288,30
238,24	3297,40
238,72	3314,18
239,19	3295,22
239,66	3305,78
240,13	3308,92
240,60	3308,38
241,07	3295,60
241,54	3295,32
242,01	3289,25
242,48	3311,30
242,95	3322,30
243,42	3298,98
243,90	3302,35
244,37	3281,72
244,84	3301,80
245,31	3304,52
245,78	3367,52
246,25	3302,00
246,72	3288,15
247,19	3290,18
247,66	3282,45
248,13	3316,15
248,60	3340,90
249,07	3287,00
249,54	3307,02
250,01	3301,58
250,48	3302,22
250,95	3295,82
251,42	3277,00
251,89	3307,35
252,36	3324,08
252,83	3301,18
253,30	3295,62
253,77	3315,72
254,24	3323,05
254,71	3280,68
255,18	3286,40
255,65	3313,40
256,12	3328,88
256,59	3297,10
257,06	3323,32
257,53	3317,80
258,00	3284,38
258,47	3300,30
258,94	3300,62
259,41	3300,48
259,88	3311,65
260,35	3272,85
260,82	3299,58
261,29	3314,85
261,76	3309,20
262,23	3327,85
262,70	3300,78
263,17	3340,20
263,64	3326,65
264,11	3288,78
264,58	3322,05
265,05	3306,28
265,52	3296,85
265,99	3307,18
266,46	3307,05
266,93	3317,22
267,40	3297,18
267,87	3306,02
268,34	3311,08
268,81	3314,42
269,28	3363,22
269,74	3306,68
270,21	3293,70
270,68	3309,45
271,15	3315,50
271,62	3330,32
272,09	3294,72
272,56	3286,32
273,03	3329,35
273,50	3285,85
273,97	3306,75
274,44	3309,78
274,90	3278,40
275,37	3318,35
275,84	3323,80
276,31	3292,95
276,78	3303,50
277,25	3309,95
277,72	3315,65
278,19	3296,50
278,66	3300,02
279,12	3303,38
279,59	3306,72
280,06	3272,90
280,53	3287,02
281,00	3294,90
281,47	3315,80
281,94	3325,48
282,40	3296,22
282,87	3308,92
283,34	3276,30
283,81	3283,08
284,28	3270,00
284,75	3303,38
285,21	3374,30
285,68	3320,10
286,15	3321,42
286,62	3287,55
287,09	3293,82
287,56	3313,85
288,02	3315,02
288,49	3283,82
288,96	3295,88
289,43	3282,10
289,90	3381,52
290,36	3293,42
290,83	3290,12
291,30	3378,05
291,77	3323,85
292,24	3359,48
292,70	3292,88
293,17	3324,62
293,64	3300,52
294,11	3297,78
294,58	3309,58
295,04	3296,55
295,51	3282,85
295,98	3317,35
296,45	3298,92
296,91	3304,60
297,38	3310,68
297,85	3278,68
298,32	3312,02
298,79	3331,45
299,25	3296,48
299,72	3315,92
300,19	3269,90
300,66	3330,05
301,12	3285,15
301,59	3308,88
302,06	3293,90
302,52	3322,45
302,99	3346,62
303,46	3288,25
303,93	3325,38
304,39	3293,40
304,86	3316,02
305,33	3310,38
305,80	3287,28
306,26	3308,02
306,73	3306,55
307,20	3341,45
307,66	3334,68
308,13	3311,45
308,60	3312,18
309,07	3315,22
309,53	3293,88
310,00	3333,02
310,47	3297,05
310,93	3315,75
311,40	3289,12
311,87	3320,85
312,33	3321,38
312,80	3322,10
313,27	3284,82
313,73	3317,22
314,20	3323,00
314,67	3286,35
315,13	3295,55
315,60	3290,28
316,07	3307,10
316,53	3312,58
317,00	3306,25
317,47	3314,92
317,93	3293,78
318,40	3295,18
318,87	3307,45
319,33	3297,45
319,80	3321,55
320,26	3322,68
320,73	3310,08
321,20	3315,02
321,66	3311,98
322,13	3297,18
322,60	3319,05
323,06	3306,88
323,53	3342,45
323,99	3296,40
324,46	3298,25
324,93	3304,35
325,39	3290,82
325,86	3287,25
326,32	3320,68
326,79	3310,80
327,26	3307,65
327,72	3314,50
328,19	3309,58
328,65	3363,32
329,12	3303,90
329,59	3302,28
330,05	3282,40
330,52	3311,12
330,98	3340,65
331,45	3318,60
331,91	3304,90
332,38	3270,62
332,85	3283,50
333,31	3341,92
333,78	3296,62
334,24	3311,95
334,71	3285,08
335,17	3307,72
335,64	3304,30
336,10	3294,62
336,57	3297,92
337,03	3295,60
337,50	3311,08
337,96	3312,30
338,43	3313,30
338,90	3312,50
339,36	3295,22
339,83	3302,52
340,29	3295,85
340,76	3290,08
341,22	3319,58
341,69	3309,80
342,15	3343,72
342,62	3288,45
343,08	3345,85
343,55	3314,35
344,01	3306,98
344,48	3328,25
344,94	3311,98
345,41	3313,00
345,87	3379,15
346,34	3283,65
346,80	3302,55
347,27	3297,70
347,73	3312,58
348,19	3294,80
348,66	3296,05
349,12	3340,88
349,59	3320,52
350,05	3283,78
350,52	3292,32
350,98	3292,20
351,45	3311,95
351,91	3323,98
352,38	3296,25
352,84	3309,40
353,30	3316,30
353,77	3309,92
354,23	3298,45
354,70	3301,30
355,16	3289,92
355,63	3306,25
356,09	3312,82
356,55	3295,75
357,02	3290,90
357,48	3332,92
357,95	3289,85
358,41	3326,52
358,87	3305,62
359,34	3280,08
359,80	3307,22
360,27	3317,85
360,73	3305,12
361,19	3290,60
361,66	3311,28
362,12	3340,25
362,59	3311,40
363,05	3298,75
363,51	3308,90
363,98	3317,52
364,44	3307,92
364,91	3316,62
365,37	3307,10
365,83	3341,60
366,30	3293,10
366,76	3337,32
367,22	3285,18
367,69	3354,42
368,15	3319,95
368,61	3279,50
369,08	3284,68
369,54	3291,28
370,00	3299,28
370,47	3322,25
370,93	3327,72
371,39	3297,52
371,86	3303,48
372,32	3304,22
372,78	3297,38
373,25	3306,45
373,71	3353,48
374,17	3312,38
374,64	3293,65
375,10	3314,32
375,56	3290,72
376,03	3279,70
376,49	3310,62
376,95	3300,85
377,42	3306,68
377,88	3275,45
378,34	3281,00
378,80	3320,18
379,27	3283,48
379,73	3322,58
380,19	3308,58
380,66	3296,20
381,12	3293,28
381,58	3315,40
382,04	3289,00
382,51	3275,20
382,97	3306,35
383,43	3306,88
383,89	3281,30
384,36	3291,55
384,82	3307,75
385,28	3276,45
385,74	3325,72
386,21	3295,32
386,67	3286,32
387,13	3283,35
387,59	3306,48
388,06	3307,45
388,52	3301,68
388,98	3301,82
389,44	3299,12
389,91	3314,30
390,37	3332,48
390,83	3299,88
391,29	3330,65
391,75	3326,40
392,22	3276,52
392,68	3303,30
393,14	3296,55
393,60	3320,55
394,06	3307,38
394,53	3409,28
394,99	3307,75
395,45	3293,20
395,91	3302,65
396,37	3337,68
396,84	3285,82
397,30	3278,00
397,76	3319,55
398,22	3313,22
398,68	3327,25
399,14	3288,82
399,61	3317,58
400,07	3306,30
400,53	3310,92
400,99	3312,18
401,45	3302,85
401,91	3311,02
402,38	3293,85
402,84	3298,02
403,30	3356,15
403,76	3300,75
404,22	3325,38
404,68	3292,82
405,14	3314,88
405,61	3400,92
406,07	3283,48
406,53	3316,28
406,99	3318,68
407,45	3284,58
407,91	3304,28
408,37	3289,85
408,83	3280,38
409,29	3326,25
409,76	3278,00
410,22	3302,18
410,68	3290,15
411,14	3313,52
411,60	3307,22
412,06	3302,75
412,52	3287,60
412,98	3330,02
413,44	3303,85
413,90	3327,40
414,36	3344,40
414,83	3325,38
415,29	3283,88
415,75	3316,88
416,21	3309,95
416,67	3341,78
417,13	3301,12
417,59	3312,52
418,05	3311,95
418,51	3282,42
418,97	3326,72
419,43	3284,45
419,89	3325,70
420,35	3285,98
420,81	3325,50
421,27	3288,22
421,73	3273,50
422,19	3319,98
422,65	3294,08
423,11	3308,72
423,57	3311,22
424,03	3335,30
424,49	3300,02
424,96	3341,22
425,42	3312,52
425,88	3305,95
426,34	3344,28
426,80	3307,62
427,26	3305,05
427,72	3309,70
428,18	3301,82
428,64	3319,30
429,10	3288,22
429,56	3316,62
430,02	3286,78
430,47	3308,60
430,93	3289,85
431,39	3310,52
431,85	3290,32
432,31	3302,40
432,77	3309,82
433,23	3324,68
433,69	3301,40
434,15	3317,65
434,61	3301,00
435,07	3331,22
435,53	3295,00
435,99	3329,40
436,45	3318,25
436,91	3323,68
437,37	3287,02
437,83	3324,15
438,29	3310,48
438,75	3302,65
439,21	3309,58
439,67	3370,82
440,12	3278,18
440,58	3298,48
441,04	3330,48
441,50	3326,45
441,96	3297,58
442,42	3296,05
442,88	3310,12
443,34	3298,20
443,80	3315,48
444,26	3284,28
444,72	3313,60
445,17	3305,35
445,63	3280,75
446,09	3320,75
446,55	3312,08
447,01	3305,95
447,47	3294,02
447,93	3299,00
448,39	3387,02
448,85	3314,55
449,30	3319,22
449,76	3326,80
450,22	3292,02
450,68	3301,40
451,14	3360,10
451,60	3282,45
452,06	3305,68
452,51	3310,02
452,97	3285,98
453,43	3338,75
453,89	3314,32
454,35	3309,78
454,81	3305,62
455,26	3314,90
455,72	3302,50
456,18	3307,05
456,64	3297,52
457,10	3290,35
457,56	3317,52
458,01	3312,92
458,47	3303,25
458,93	3292,32
459,39	3292,32
459,85	3296,88
460,30	3309,00
460,76	3320,15
461,22	3290,60
461,68	3323,82
462,14	3308,70
462,59	3302,15
463,05	3309,60
463,51	3322,05
463,97	3302,98
464,43	3309,52
464,88	3324,35
465,34	3294,35
465,80	3339,52
466,26	3303,68
466,71	3302,30
467,17	3280,90
467,63	3307,48
468,09	3300,78
468,54	3310,55
469,00	3300,60
469,46	3286,85
469,92	3336,75
470,37	3321,92
470,83	3291,28
471,29	3282,68
471,75	3327,75
472,20	3299,78
472,66	3308,02
473,12	3309,72
473,58	3287,92
474,03	3302,90
474,49	3323,22
474,95	3303,50
475,40	3314,52
475,86	3319,68
476,32	3302,42
476,78	3309,80
477,23	3312,85
477,69	3303,02
478,15	3290,65
478,60	3311,28
479,06	3308,58
479,52	3295,48
479,97	3300,08
480,43	3294,32
480,89	3297,05
481,34	3303,32
481,80	3335,50
482,26	3305,28
482,71	3293,05
483,17	3301,20
483,63	3286,28
484,08	3318,15
484,54	3304,90
485,00	3310,15
485,45	3298,85
485,91	3308,55
486,37	3332,45
486,82	3311,40
487,28	3326,85
487,74	3293,40
488,19	3341,30
488,65	3317,40
489,10	3299,30
489,56	3298,68
490,02	3300,05
490,47	3309,20
490,93	3285,45
491,39	3303,18
491,84	3282,58
492,30	3301,20
492,75	3332,95
493,21	3313,02
493,67	3302,02
494,12	3278,28
494,58	3294,58
495,03	3273,60
495,49	3309,75
495,95	3278,90
496,40	3283,75
496,86	3291,68
497,31	3309,05
497,77	3304,55
498,23	3320,80
498,68	3283,35
499,14	3304,42
499,59	3280,72
500,05	3289,38
500,50	3273,62
500,96	3323,58
501,41	3311,02
501,87	3303,52
502,33	3286,70
502,78	3301,60
503,24	3291,82
503,69	3284,40
504,15	3314,35
504,60	3290,40
505,06	3296,10
505,51	3340,18
505,97	3325,30
506,42	3288,62
506,88	3304,02
507,33	3293,45
507,79	3347,45
508,24	3299,32
508,70	3289,50
509,15	3302,22
509,61	3295,15
510,06	3313,45
510,52	3298,02
510,97	3301,40
511,43	3299,28
511,88	3308,75
512,34	3295,30
512,79	3309,82
513,25	3307,20
513,70	3286,12
514,16	3299,35
514,61	3317,12
515,07	3298,60
515,52	3313,35
515,98	3309,62
516,43	3289,80
516,89	3287,05
517,34	3276,88
517,80	3289,48
518,25	3296,60
518,70	3288,42
519,16	3325,40
519,61	3326,48
520,07	3287,30
520,52	3273,10
520,98	3289,45
521,43	3312,58
521,89	3268,70
522,34	3322,62
522,79	3331,52
523,25	3275,92
523,70	3303,05
524,16	3324,62
524,61	3317,42
525,06	3357,85
525,52	3308,50
525,97	3304,38
526,43	3383,30
526,88	3298,18
527,33	3287,38
527,79	3282,50
528,24	3284,45
528,70	3307,28
529,15	3310,70
529,60	3312,08
530,06	3301,45
530,51	3279,52
530,97	3336,98
531,42	3319,00
531,87	3296,00
532,33	3332,68
532,78	3308,90
533,23	3317,60
533,69	3326,12
534,14	3309,62
534,59	3300,80
535,05	3300,18
535,50	3294,62
535,96	3316,20
536,41	3310,42
536,86	3299,08
537,32	3284,02
537,77	3313,48
538,22	3314,92
538,68	3281,38
539,13	3325,80
539,58	3299,70
540,03	3301,80
540,49	3302,22
540,94	3308,20
541,39	3296,15
541,85	3287,12
542,30	3303,38
542,75	3292,08
543,21	3306,18
543,66	3292,72
544,11	3311,82
544,57	3284,95
545,02	3316,32
545,47	3295,78
545,92	3301,48
546,38	3336,42
546,83	3316,02
547,28	3414,35
547,73	3277,20
548,19	3339,30
548,64	3304,78
549,09	3281,65
549,55	3312,32
550,00	3307,20
550,45	3289,52
550,90	3361,70
551,36	3274,50
551,81	3344,15
552,26	3319,85
552,71	3301,85
553,17	3298,42
553,62	3315,98
554,07	3306,98
554,52	3311,92
554,97	3318,02
555,43	3304,88
555,88	3300,78
556,33	3298,15
556,78	3289,40
557,24	3346,92
557,69	3296,42
558,14	3282,05
558,59	3308,62
559,04	3304,75
559,50	3343,15
559,95	3304,62
560,40	3287,15
560,85	3314,05
561,30	3294,35
561,76	3284,68
562,21	3309,20
562,66	3303,92
563,11	3344,18
563,56	3301,58
564,01	3329,38
564,47	3274,50
564,92	3307,75
565,37	3344,28
565,82	3296,05
566,27	3299,18
566,72	3285,82
567,18	3294,02
567,63	3287,12
568,08	3308,42
568,53	3298,18
568,98	3299,82
569,43	3296,20
569,88	3289,52
570,34	3303,32
570,79	3329,22
571,24	3288,18
571,69	3311,02
572,14	3297,18
572,59	3300,65
573,04	3304,98
573,49	3327,50
573,94	3296,95
574,40	3287,88
574,85	3305,60
575,30	3321,92
575,75	3290,18
576,20	3302,32
576,65	3319,48
577,10	3302,28
577,55	3295,65
578,00	3313,08
578,45	3314,55
578,91	3304,12
579,36	3307,30
579,81	3312,28
580,26	3292,40
580,71	3289,12
581,16	3306,22
581,61	3325,55
582,06	3316,72
582,51	3281,20
582,96	3309,08
583,41	3269,35
583,86	3327,65
584,31	3295,28
584,76	3294,12
585,21	3284,10
585,66	3328,95
586,11	3305,50
586,56	3292,45
587,01	3307,35
587,46	3308,10
587,92	3299,42
588,37	3300,05
588,82	3305,95
589,27	3298,52
589,72	3280,08
590,17	3300,15
590,62	3310,12
591,07	3295,68
591,52	3312,35
591,97	3288,25
592,42	3354,45
592,87	3294,90
593,32	3294,02
593,77	3297,55
594,22	3303,25
594,67	3318,50
595,12	3285,85
595,56	3310,62
596,01	3297,58
596,46	3290,00
596,91	3310,08
597,36	3313,20
597,81	3292,50
598,26	3279,75
598,71	3326,32
599,16	3292,98
599,61	3306,52
600,06	3294,85
600,51	3320,42
600,96	3298,20
601,41	3301,00
601,86	3327,12
602,31	3297,15
602,76	3291,70
603,21	3331,45
603,66	3317,75
604,11	3324,90
604,55	3306,05
605,00	3279,32
605,45	3297,90
605,90	3326,45
606,35	3287,75
606,80	3311,12
607,25	3331,02
607,70	3309,95
608,15	3319,15
608,60	3280,55
609,04	3368,28
609,49	3286,35
609,94	3306,60
610,39	3276,95
610,84	3273,78
611,29	3312,12
611,74	3295,10
612,19	3315,55
612,64	3302,68
613,08	3275,20
613,53	3302,10
613,98	3299,35
614,43	3299,95
614,88	3311,35
615,33	3299,68
615,78	3355,98
616,22	3317,70
616,67	3298,75
617,12	3294,10
617,57	3306,80
618,02	3277,40
618,47	3340,05
618,91	3311,42
619,36	3303,38
619,81	3365,12
620,26	3279,28
620,71	3278,75
621,16	3278,25
621,60	3278,28
622,05	3296,65
622,50	3296,58
622,95	3281,10
623,40	3296,40
623,84	3302,35
624,29	3320,48
624,74	3290,00
625,19	3293,38
625,64	3294,08
626,08	3317,85
626,53	3288,62
626,98	3321,48
627,43	3324,60
627,87	3297,88
628,32	3316,40
628,77	3328,20
629,22	3322,12
629,66	3294,18
630,11	3289,58
630,56	3328,22
631,01	3281,38
631,46	3298,68
631,90	3308,65
632,35	3287,88
632,80	3296,28
633,25	3304,15
633,69	3289,35
634,14	3315,08
634,59	3315,50
635,03	3267,08
635,48	3297,60
635,93	3309,90
636,38	3292,38
636,82	3316,40
637,27	3296,15
637,72	3313,58
638,16	3313,78
638,61	3327,22
639,06	3289,55
639,51	3289,72
639,95	3284,50
640,40	3288,60
640,85	3282,48
641,29	3293,32
641,74	3288,18
642,19	3274,35
642,63	3295,35
643,08	3294,50
643,53	3290,08
643,97	3311,85
644,42	3313,92
644,87	3290,48
645,31	3300,28
645,76	3281,60
646,21	3275,32
646,65	3307,48
647,10	3324,50
647,55	3277,02
647,99	3290,68
648,44	3291,15
648,89	3271,18
649,33	3289,30
649,78	3311,10
650,23	3291,80
650,67	3279,90
651,12	3287,75
651,56	3281,75
652,01	3303,80
652,46	3302,12
652,90	3308,92
653,35	3313,55
653,80	3306,28
654,24	3305,48
654,69	3277,38
655,13	3325,18
655,58	3307,82
656,03	3384,65
656,47	3286,25
656,92	3284,35
657,36	3285,42
657,81	3299,98
658,26	3279,80
658,70	3297,15
659,15	3291,35
659,59	3286,18
660,04	3299,75
660,48	3303,45
660,93	3290,15
661,38	3281,85
661,82	3315,25
662,27	3283,52
662,71	3295,70
663,16	3305,50
663,60	3312,42
664,05	3285,15
664,49	3301,72
664,94	3281,00
665,38	3389,60
665,83	3287,15
666,28	3319,50
666,72	3293,60
667,17	3279,42
667,61	3295,78
668,06	3282,70
668,50	3266,95
668,95	3305,08
669,39	3288,32
669,84	3288,25
670,28	3293,58
670,73	3275,88
671,17	3302,98
671,62	3279,25
672,06	3306,38
672,51	3301,90
672,95	3358,50
673,40	3328,98
673,84	3280,32
674,29	3303,80
674,73	3283,58
675,18	3345,15
675,62	3269,75
676,07	3281,35
676,51	3322,70
676,95	3295,65
677,40	3333,38
677,84	3343,12
678,29	3297,42
678,73	3299,35
679,18	3324,10
679,62	3369,00
680,07	3306,78
680,51	3304,18
680,96	3274,30
681,40	3277,42
681,84	3296,88
682,29	3294,10
682,73	3293,02
683,18	3292,02
683,62	3360,95
684,07	3282,70
684,51	3290,22
684,95	3302,60
685,40	3288,58
685,84	3297,80
686,29	3296,68
686,73	3266,25
687,17	3265,68
687,62	3289,95
688,06	3302,62
688,51	3313,82
688,95	3306,72
689,39	3302,42
689,84	3327,90
690,28	3308,25
690,73	3302,75
691,17	3308,75
691,61	3291,48
692,06	3279,95
692,50	3296,90
692,94	3286,38
693,39	3299,20
693,83	3286,12
694,27	3358,15
694,72	3309,78
695,16	3270,25
695,60	3291,25
696,05	3290,88
696,49	3276,25
696,94	3292,70
697,38	3275,68
697,82	3295,65
698,27	3293,10
698,71	3305,50
699,15	3306,52
699,59	3297,68
700,04	3299,08
700,48	3395,52
700,92	3296,95
701,37	3298,02
701,81	3337,92
702,25	3293,60
702,70	3289,35
703,14	3305,35
703,58	3285,42
704,03	3318,85
704,47	3313,28
704,91	3286,35
705,35	3288,68
705,80	3312,98
706,24	3315,32
706,68	3382,95
707,13	3276,28
707,57	3326,00
708,01	3282,25
708,45	3288,30
708,90	3303,20
709,34	3296,78
709,78	3292,35
710,22	3325,48
710,67	3317,88
711,11	3320,08
711,55	3275,70
711,99	3307,52
712,44	3298,55
712,88	3291,62
713,32	3308,22
713,76	3316,95
714,21	3298,90
714,65	3288,90
715,09	3296,05
715,53	3294,10
715,97	3287,22
716,42	3312,05
716,86	3299,80
717,30	3300,25
717,74	3280,72
718,18	3340,58
718,63	3293,58
719,07	3304,78
719,51	3333,95
719,95	3316,28
720,39	3293,45
720,84	3299,90
721,28	3287,98
721,72	3291,50
722,16	3277,45
722,60	3272,80
723,04	3310,40
723,49	3333,45
723,93	3280,88
724,37	3276,80
724,81	3297,52
725,25	3293,58
725,69	3285,92
726,14	3303,15
726,58	3285,98
727,02	3303,08
727,46	3291,45
727,90	3272,15
728,34	3271,90
728,78	3301,20
729,23	3272,65
729,67	3305,42
730,11	3275,08
730,55	3295,72
730,99	3295,40
731,43	3298,18
731,87	3344,25
732,31	3281,18
732,76	3324,28
733,20	3307,78
733,64	3292,40
734,08	3324,82
734,52	3283,65
734,96	3318,50
735,40	3278,32
735,84	3300,05
736,28	3306,88
736,72	3302,02
737,16	3300,82
737,61	3281,80
738,05	3308,92
738,49	3301,62
738,93	3283,58
739,37	3316,35
739,81	3304,72
740,25	3296,85
740,69	3358,10
741,13	3282,52
741,57	3305,95
742,01	3311,88
742,45	3308,70
742,89	3294,30
743,33	3290,22
743,77	3296,95
744,21	3276,25
744,65	3317,55
745,09	3300,80
745,53	3281,48
745,98	3311,22
746,42	3309,28
746,86	3299,08
747,30	3297,18
747,74	3283,50
748,18	3278,70
748,62	3293,05
749,06	3322,45
749,50	3318,28
749,94	3299,28
750,38	3317,50
750,82	3332,90
751,26	3263,22
751,70	3280,15
752,14	3271,05
752,58	3311,92
753,02	3291,38
753,45	3285,18
753,89	3306,88
754,33	3362,58
754,77	3295,28
755,21	3293,28
755,65	3274,90
756,09	3288,35
756,53	3286,62
756,97	3296,15
757,41	3337,42
757,85	3286,45
758,29	3292,08
758,73	3272,78
759,17	3285,22
759,61	3278,58
760,05	3292,62
760,49	3302,75
760,93	3321,10
761,37	3290,35
761,80	3322,42
762,24	3296,28
762,68	3294,35
763,12	3295,42
763,56	3295,85
764,00	3276,28
764,44	3288,85
764,88	3304,10
765,32	3293,98
765,76	3306,95
766,20	3322,22
766,63	3290,12
767,07	3276,85
767,51	3287,72
767,95	3314,25
768,39	3293,95
768,83	3273,00
769,27	3283,62
769,71	3308,92
770,14	3280,28
770,58	3274,30
771,02	3284,62
771,46	3294,32
771,90	3297,52
772,34	3301,60
772,78	3311,50
773,21	3294,45
773,65	3338,98
774,09	3280,48
774,53	3297,92
774,97	3281,75
775,41	3276,90
775,84	3304,35
776,28	3297,28
776,72	3305,38
777,16	3273,95
777,60	3290,78
778,04	3290,12
778,47	3264,40
778,91	3291,85
779,35	3277,45
779,79	3304,62
780,23	3300,22
780,66	3278,98
781,10	3290,85
781,54	3287,85
781,98	3307,88
782,42	3305,65
782,85	3288,32
783,29	3305,20
783,73	3360,80
784,17	3327,62
784,61	3294,60
785,04	3317,92
785,48	3309,05
785,92	3282,92
786,36	3299,90
786,79	3278,52
787,23	3291,68
787,67	3313,58
788,11	3314,95
788,54	3299,58
788,98	3287,42
789,42	3295,65
789,86	3283,50
790,29	3314,25
790,73	3311,25
791,17	3319,25
791,60	3278,60
792,04	3285,35
792,48	3303,35
792,92	3282,78
793,35	3288,32
793,79	3283,50
794,23	3298,25
794,67	3280,75
795,10	3286,50
795,54	3318,78
795,98	3287,02
796,41	3299,35
796,85	3284,05
797,29	3389,60
797,72	3316,62
798,16	3295,08
798,60	3304,82
799,03	3298,42
799,47	3278,40
799,91	3307,52
800,34	3291,80
800,78	3299,68
801,22	3283,08
801,65	3279,12
802,09	3294,35
802,53	3321,72
802,96	3299,32
803,40	3282,28
803,84	3331,30
804,27	3306,70
804,71	3282,35
805,15	3304,40
805,58	3299,35
806,02	3286,00
806,46	3314,48
806,89	3332,55
807,33	3313,48
807,76	3300,95
808,20	3293,90
808,64	3290,75
809,07	3333,25
809,51	3342,68
809,95	3335,58
810,38	3316,52
810,82	3345,28
811,25	3289,65
811,69	3297,50
812,13	3281,35
812,56	3308,25
813,00	3295,95
813,43	3284,05
813,87	3279,18
814,30	3305,98
814,74	3326,18
815,18	3373,22
815,61	3290,52
816,05	3283,55
816,48	3311,92
816,92	3340,15
817,35	3316,72
817,79	3301,92
818,23	3313,42
818,66	3309,42
819,10	3305,42
819,53	3286,12
819,97	3284,38
820,40	3287,35
820,84	3313,95
821,27	3299,15
821,71	3319,92
822,14	3289,20
822,58	3307,78
823,01	3319,78
823,45	3295,35
823,88	3303,02
824,32	3287,92
824,75	3300,50
825,19	3283,38
825,63	3326,98
826,06	3280,08
826,50	3300,15
826,93	3299,30
827,37	3281,85
827,80	3300,40
828,23	3293,65
828,67	3305,20
829,10	3305,30
829,54	3278,92
829,97	3286,62
830,41	3262,68
830,84	3299,22
831,28	3308,42
831,71	3324,48
832,15	3287,32
832,58	3311,05
833,02	3304,20
833,45	3287,08
833,89	3333,45
834,32	3291,48
834,75	3346,02
835,19	3315,08
835,62	3312,95
836,06	3272,60
836,49	3296,18
836,93	3292,90
837,36	3314,30
837,79	3312,35
838,23	3293,95
838,66	3288,08
839,10	3317,72
839,53	3291,32
839,97	3304,22
840,40	3294,62
840,83	3319,02
841,27	3280,52
841,70	3288,48
842,14	3305,92
842,57	3295,68
843,00	3328,92
843,44	3347,90
843,87	3304,28
844,31	3320,72
844,74	3269,40
845,17	3280,92
845,61	3277,68
846,04	3285,48
846,47	3311,15
846,91	3299,25
847,34	3307,95
847,77	3294,62
848,21	3282,98
848,64	3308,75
849,08	3290,72
849,51	3315,08
849,94	3279,02
850,38	3284,15
850,81	3295,72
851,24	3285,60
851,68	3291,35
852,11	3289,42
852,54	3310,20
852,98	3319,30
853,41	3312,58
853,84	3293,78
854,28	3322,45
854,71	3280,40
855,14	3301,35
855,57	3322,18
856,01	3286,28
856,44	3288,88
856,87	3309,28
857,31	3275,05
857,74	3313,00
858,17	3279,02
858,61	3287,65
859,04	3317,90
859,47	3327,28
859,90	3299,55
860,34	3306,28
860,77	3294,18
861,20	3277,72
861,63	3319,52
862,07	3265,78
862,50	3283,48
862,93	3290,98
863,37	3296,10
863,80	3297,25
864,23	3313,40
864,66	3282,60
865,10	3291,85
865,53	3309,68
865,96	3285,52
866,39	3291,30
866,82	3313,75
867,26	3281,85
867,69	3299,00
868,12	3291,88
868,55	3272,60
868,99	3288,90
869,42	3266,92
869,85	3312,05
870,28	3279,68
870,71	3299,40
871,15	3294,32
871,58	3286,22
872,01	3309,72
872,44	3298,28
872,87	3327,65
873,31	3348,98
873,74	3277,78
874,17	3293,45
874,60	3297,90
875,03	3287,12
875,47	3296,35
875,90	3305,48
876,33	3286,65
876,76	3321,12
877,19	3307,30
877,62	3289,58
878,06	3281,40
878,49	3321,80
878,92	3260,82
879,35	3306,98
879,78	3291,58
880,21	3296,02
880,64	3294,42
881,08	3292,70
881,51	3303,98
881,94	3297,08
882,37	3334,45
882,80	3281,78
883,23	3279,32
883,66	3290,65
884,09	3296,42
884,53	3310,52
884,96	3296,38
885,39	3291,52
885,82	3294,10
886,25	3289,38
886,68	3276,02
887,11	3307,48
887,54	3298,20
887,97	3307,78
888,40	3314,62
888,84	3290,62
889,27	3282,38
889,70	3332,88
890,13	3279,42
890,56	3280,05
890,99	3292,85
891,42	3284,68
891,85	3370,62
892,28	3274,30
892,71	3312,15
893,14	3286,95
893,57	3304,25
894,00	3310,50
894,43	3271,18
894,86	3282,52
895,29	3289,35
895,73	3271,82
896,16	3286,90
896,59	3300,95
897,02	3289,32
897,45	3308,70
897,88	3286,78
898,31	3279,98
898,74	3300,38
899,17	3306,72
899,60	3283,42
900,03	3276,88
900,46	3283,65
900,89	3298,55
901,32	3319,28
901,75	3283,20
902,18	3282,08
902,61	3286,98
903,04	3307,35
903,47	3304,52
903,90	3289,12
904,33	3338,92
904,76	3343,22
905,19	3285,80
905,62	3287,05
906,05	3331,60
906,48	3280,80
906,91	3300,10
907,34	3282,78
907,76	3292,78
908,19	3272,72
908,62	3320,10
909,05	3297,65
909,48	3314,40
909,91	3302,05
910,34	3290,40
910,77	3303,35
911,20	3329,15
911,63	3287,38
912,06	3272,28
912,49	3300,72
912,92	3301,98
913,35	3290,20
913,78	3284,28
914,21	3291,05
914,63	3293,12
915,06	3288,50
915,49	3305,18
915,92	3301,58
916,35	3289,38
916,78	3271,00
917,21	3274,68
917,64	3289,62
918,07	3280,35
918,50	3311,75
918,92	3287,82
919,35	3321,00
919,78	3290,18
920,21	3310,30
920,64	3280,45
921,07	3291,90
921,50	3289,15
921,93	3307,48
922,35	3310,35
922,78	3294,05
923,21	3327,65
923,64	3306,62
924,07	3288,05
924,50	3276,68
924,92	3275,08
925,35	3298,22
925,78	3328,82
926,21	3308,02
926,64	3272,12
927,07	3309,38
927,49	3276,72
927,92	3309,82
928,35	3340,65
928,78	3287,92
929,21	3307,45
929,64	3274,48
930,06	3347,95
930,49	3293,00
930,92	3276,70
931,35	3310,38
931,78	3290,45
932,20	3302,92
932,63	3310,72
933,06	3286,22
933,49	3304,02
933,92	3266,25
934,34	3330,58
934,77	3320,15
935,20	3353,20
935,63	3294,38
936,05	3316,85
936,48	3314,50
936,91	3308,50
937,34	3303,75
937,76	3276,38
938,19	3290,08
938,62	3286,62
939,05	3302,02
939,47	3278,40
939,90	3307,20
940,33	3285,65
940,76	3289,22
941,18	3306,88
941,61	3278,22
942,04	3294,42
942,47	3310,98
942,89	3340,75
943,32	3288,60
943,75	3317,25
944,17	3277,62
944,60	3288,05
945,03	3307,82
945,46	3276,35
945,88	3272,92
946,31	3307,45
946,74	3287,62
947,16	3303,65
947,59	3294,40
948,02	3299,20
948,44	3302,08
948,87	3319,75
949,30	3288,95
949,72	3292,88
950,15	3306,85
950,58	3269,98
951,00	3275,72
951,43	3281,65
951,86	3348,18
952,28	3325,75
952,71	3288,15
953,14	3290,30
953,56	3308,52
953,99	3276,25
954,42	3310,70
954,84	3291,75
955,27	3333,80
955,70	3271,15
956,12	3281,70
956,55	3288,70
956,98	3286,02
957,40	3284,68
957,83	3304,95
958,25	3274,72
958,68	3305,50
959,11	3362,58
959,53	3275,00
959,96	3302,62
960,38	3302,10
960,81	3289,18
961,24	3282,80
961,66	3284,32
962,09	3262,80
962,51	3285,70
962,94	3309,75
963,37	3303,42
963,79	3314,42
964,22	3308,78
964,64	3284,88
965,07	3300,42
965,49	3288,60
965,92	3301,00
966,35	3289,62
966,77	3287,08
967,20	3312,08
967,62	3288,80
968,05	3290,62
968,47	3305,72
968,90	3279,05
969,32	3284,40
969,75	3317,12
970,17	3394,65
970,60	3307,88
971,03	3295,15
971,45	3304,30
971,88	3282,12
972,30	3283,72
972,73	3305,98
973,15	3286,02
973,58	3296,38
974,00	3273,20
974,43	3280,18
974,85	3284,00
975,28	3304,52
975,70	3289,75
976,13	3304,60
976,55	3297,20
976,98	3279,02
977,40	3284,68
977,83	3279,52
978,25	3296,60
978,68	3274,80
979,10	3306,62
979,53	3297,28
979,95	3289,80
980,37	3292,18
980,80	3288,45
981,22	3314,02
981,65	3304,68
982,07	3285,72
982,50	3305,28
982,92	3316,70
983,35	3290,15
983,77	3292,95
984,20	3282,88
984,62	3287,95
985,04	3284,55
985,47	3311,90
985,89	3312,75
986,32	3277,10
986,74	3265,68
987,17	3285,85
987,59	3306,95
988,01	3286,98
988,44	3281,32
988,86	3300,25
989,29	3293,35
989,71	3294,60
990,13	3290,02
990,56	3296,10
990,98	3295,42
991,41	3287,80
991,83	3301,98
992,25	3298,88
992,68	3294,28
993,10	3329,10
993,53	3286,48
993,95	3274,68
994,37	3289,95
994,80	3285,88
995,22	3287,98
995,64	3306,78
996,07	3310,52
996,49	3296,25
996,91	3292,38
997,34	3267,92
997,76	3272,45
998,18	3268,42
998,61	3319,60
999,03	3310,05
999,45	3286,95
999,88	3298,15
1000,30	3276,88
1000,72	3324,08
1001,15	3294,02
1001,57	3299,28
1001,99	3321,50
1002,42	3279,65
1002,84	3296,45
1003,26	3309,70
1003,69	3294,40
1004,11	3297,32
1004,53	3292,82
1004,96	3305,72
1005,38	3277,42
1005,80	3301,38
1006,22	3303,68
1006,65	3324,20
1007,07	3291,25
1007,49	3272,25
1007,92	3307,30
1008,34	3292,75
1008,76	3279,38
1009,18	3271,65
1009,61	3294,88
1010,03	3288,65
1010,45	3375,48
1010,87	3314,80
1011,30	3308,30
1011,72	3301,62
1012,14	3303,70
1012,56	3312,75
1012,99	3290,95
1013,41	3305,32
1013,83	3305,18
1014,25	3301,58
1014,68	3302,38
1015,10	3277,42
1015,52	3320,18
1015,94	3270,32
1016,37	3314,72
1016,79	3286,48
1017,21	3296,98
1017,63	3278,28
1018,05	3306,60
1018,48	3285,25
1018,90	3289,20
1019,32	3294,62
1019,74	3266,95
1020,16	3362,70
1020,59	3321,20
1021,01	3307,68
1021,43	3285,60
1021,85	3291,08
1022,27	3300,28
1022,69	3299,65
1023,12	3306,70
1023,54	3292,75
1023,96	3373,00
1024,38	3315,98
1024,80	3313,18
1025,22	3309,15
1025,65	3300,82
1026,07	3298,42
1026,49	3313,70
1026,91	3284,65
1027,33	3277,22
1027,75	3340,12
1028,17	3308,70
1028,60	3305,02
1029,02	3296,10
1029,44	3305,00
1029,86	3283,82
1030,28	3343,82
1030,70	3301,88
1031,12	3292,45
1031,54	3308,12
1031,97	3322,82
1032,39	3279,72
1032,81	3301,20
1033,23	3310,85
1033,65	3293,60
1034,07	3316,05
1034,49	3280,10
1034,91	3280,75
1035,33	3306,30
1035,75	3313,52
1036,18	3285,08
1036,60	3334,90
1037,02	3283,22
1037,44	3284,28
1037,86	3302,08
1038,28	3271,92
1038,70	3309,90
1039,12	3314,98
1039,54	3308,85
1039,96	3326,38
1040,38	3327,70
1040,80	3292,65
1041,22	3294,78
1041,64	3305,28
1042,06	3287,32
1042,48	3325,25
1042,90	3322,52
1043,32	3308,18
1043,74	3316,02
1044,17	3296,08
1044,59	3317,05
1045,01	3282,52
1045,43	3290,42
1045,85	3289,32
1046,27	3280,42
1046,69	3300,45
1047,11	3309,68
1047,53	3277,75
1047,95	3302,05
1048,37	3318,20
1048,79	3280,45
1049,21	3318,35
1049,63	3309,18
1050,05	3315,40
1050,47	3289,75
1050,89	3294,80
1051,31	3304,78
1051,72	3310,15
1052,14	3325,40
1052,56	3320,08
1052,98	3300,75
1053,40	3313,15
1053,82	3263,48
1054,24	3295,10
1054,66	3267,85
1055,08	3294,58
1055,50	3282,90
1055,92	3302,68
1056,34	3307,95
1056,76	3339,20
1057,18	3317,45
1057,60	3316,45
1058,02	3303,10
1058,44	3379,25
1058,86	3285,42
1059,28	3309,38
1059,69	3315,32
1060,11	3297,70
1060,53	3292,05
1060,95	3286,62
1061,37	3314,08
1061,79	3298,28
1062,21	3289,15
1062,63	3319,95
1063,05	3333,40
1063,47	3303,95
1063,88	3297,52
1064,30	3284,02
1064,72	3321,60
1065,14	3320,28
1065,56	3292,08
1065,98	3280,52
1066,40	3269,95
1066,82	3313,98
1067,23	3296,15
1067,65	3296,20
1068,07	3302,48
1068,49	3287,38
1068,91	3332,50
1069,33	3303,28
1069,75	3284,62
1070,16	3277,00
1070,58	3318,75
1071,00	3318,92
1071,42	3317,65
1071,84	3291,28
1072,26	3309,70
1072,67	3285,72
1073,09	3278,48
1073,51	3274,55
1073,93	3307,98
1074,35	3287,88
1074,77	3275,88
1075,18	3287,38
1075,60	3291,68
1076,02	3301,15
1076,44	3286,25
1076,86	3283,58
1077,27	3298,50
1077,69	3316,45
1078,11	3289,52
1078,53	3315,40
1078,94	3329,72
1079,36	3264,52
1079,78	3299,32
1080,20	3291,90
1080,62	3296,90
1081,03	3309,28
1081,45	3291,12
1081,87	3288,70
1082,29	3303,40
1082,70	3294,60
1083,12	3295,78
1083,54	3296,28
1083,96	3297,18
1084,37	3317,12
1084,79	3293,52
1085,21	3290,42
1085,63	3325,72
1086,04	3279,50
1086,46	3289,45
1086,88	3305,15
1087,30	3270,40
1087,71	3313,52
1088,13	4365,92
1088,55	3289,72
1088,96	3287,02
1089,38	3288,88
1089,80	3291,65
1090,22	3320,62
1090,63	3291,08
1091,05	3277,92
1091,47	3303,55
1091,88	3287,50
1092,30	3279,90
1092,72	3292,62
1093,13	3289,62
1093,55	3300,10
1093,97	3289,95
1094,38	3294,08
1094,80	3291,55
1095,22	3297,55
1095,63	3282,00
1096,05	3294,62
1096,47	3305,82
1096,88	3277,08
1097,30	3299,95
1097,72	3283,65
1098,13	3305,85
1098,55	3308,00
1098,97	3311,00
1099,38	3288,82
1099,80	3288,02
1100,21	3281,08
1100,63	3288,35
1101,05	3286,55
1101,46	3297,50
1101,88	3275,78
1102,30	3284,25
1102,71	3289,40
1103,13	3290,28
1103,54	3297,45
1103,96	3286,22
1104,38	3329,95
1104,79	3259,85
1105,21	3295,18
1105,62	3291,28
1106,04	3280,82
1106,46	3290,88
1106,87	3253,45
1107,29	3269,60
1107,70	3314,55
1108,12	3270,52
1108,54	3299,42
1108,95	3301,92
1109,37	3294,98
1109,78	3260,02
1110,20	3281,35
1110,61	3264,02
1111,03	3264,02
1111,44	3264,02
1111,86	3264,02
1112,28	3264,02
1112,69	3264,02
1113,11	3264,02
1113,52	3264,02
1113,94	3264,02
1114,35	3264,02
1114,77	3264,02
1115,18	3264,02
1115,60	3264,02
1116,01	3264,02
1116,43	3264,02
1116,84	3264,02
1117,26	3264,02
1117,67	3264,02
1118,09	3264,02
1118,50	3264,02
1118,92	3264,02
>>>>>End Processed Spectral Data<<<<<
