SpectraSuite Data File
++++++++++++++++++++++++++++++++++++
Date: Tue Jul 12 15:39:20 EEST 2011
User: OO Maya
Dark Spectrum Present: No
Reference Spectrum Present: No
Number of Sampled Component Spectra: 1
Spectrometers: MAYP11278
Integration Time (usec): 20000 (MAYP11278)
Spectra Averaged: 40 (MAYP11278)
Boxcar Smoothing: 0 (MAYP11278)
Correct for Electrical Dark: No (MAYP11278)
Strobe/Lamp Enabled: No (MAYP11278)
Correct for Detector Non-linearity: No (MAYP11278)
Correct for Stray Light: No (MAYP11278)
Number of Pixels in Processed Spectrum: 2068
>>>>>Begin Processed Spectral Data<<<<<
200,00	3029,00
200,47	2996,92
200,95	2996,85
201,42	2994,82
201,89	3029,20
202,37	3029,60
202,84	3031,48
203,31	3029,25
203,79	3033,52
204,26	3032,55
204,73	3034,62
205,20	3033,12
205,68	3033,95
206,15	3035,58
206,62	3037,38
207,10	3034,38
207,57	3037,52
208,04	3034,35
208,51	3033,38
208,99	3039,88
209,46	3033,35
209,93	3032,85
210,41	3032,50
210,88	3033,05
211,35	3035,10
211,82	3037,20
212,30	3033,98
212,77	3033,35
213,24	3036,52
213,71	3034,55
214,19	3036,92
214,66	3032,42
215,13	3035,68
215,60	3033,22
216,08	3036,02
216,55	3037,50
217,02	3031,60
217,49	3033,72
217,96	3037,00
218,44	3034,20
218,91	3035,80
219,38	3041,00
219,85	3035,32
220,33	3034,32
220,80	3034,72
221,27	3038,30
221,74	3035,60
222,21	3034,90
222,69	3035,65
223,16	3036,42
223,63	3035,52
224,10	3034,50
224,57	3038,50
225,04	3035,28
225,52	3033,02
225,99	3039,95
226,46	3036,25
226,93	3039,45
227,40	3034,55
227,87	3034,38
228,35	3035,22
228,82	3037,28
229,29	3035,38
229,76	3034,88
230,23	3038,35
230,70	3031,92
231,18	3035,48
231,65	3035,62
232,12	3034,38
232,59	3036,70
233,06	3034,58
233,53	3036,80
234,00	3034,60
234,48	3036,92
234,95	3036,18
235,42	3035,98
235,89	3036,35
236,36	3034,70
236,83	3031,70
237,30	3035,60
237,77	3033,90
238,24	3034,40
238,72	3037,05
239,19	3034,88
239,66	3037,08
240,13	3036,40
240,60	3038,48
241,07	3034,75
241,54	3033,72
242,01	3034,42
242,48	3037,32
242,95	3040,42
243,42	3036,58
243,90	3037,85
244,37	3034,82
244,84	3036,82
245,31	3036,22
245,78	3043,15
246,25	3037,70
246,72	3033,60
247,19	3033,68
247,66	3033,08
248,13	3038,28
248,60	3041,25
249,07	3036,62
249,54	3036,72
250,01	3036,38
250,48	3036,42
250,95	3034,45
251,42	3032,72
251,89	3037,32
252,36	3037,72
252,83	3037,35
253,30	3034,65
253,77	3038,08
254,24	3040,02
254,71	3035,52
255,18	3034,78
255,65	3038,08
256,12	3041,35
256,59	3035,92
257,06	3039,00
257,53	3040,32
258,00	3035,52
258,47	3038,02
258,94	3037,75
259,41	3036,35
259,88	3038,20
260,35	3033,25
260,82	3038,52
261,29	3038,20
261,76	3038,12
262,23	3041,00
262,70	3037,92
263,17	3040,68
263,64	3039,32
264,11	3036,25
264,58	3040,95
265,05	3038,15
265,52	3038,10
265,99	3037,40
266,46	3039,28
266,93	3038,02
267,40	3035,35
267,87	3037,10
268,34	3038,12
268,81	3038,80
269,28	3045,80
269,74	3037,88
270,21	3035,70
270,68	3038,20
271,15	3038,68
271,62	3040,88
272,09	3035,72
272,56	3036,35
273,03	3040,35
273,50	3036,50
273,97	3037,08
274,44	3036,82
274,90	3034,50
275,37	3038,98
275,84	3038,35
276,31	3036,15
276,78	3036,08
277,25	3038,85
277,72	3038,78
278,19	3036,00
278,66	3037,02
279,12	3037,40
279,59	3036,62
280,06	3032,95
280,53	3034,58
281,00	3035,65
281,47	3037,60
281,94	3039,70
282,40	3035,30
282,87	3037,10
283,34	3033,72
283,81	3035,70
284,28	3033,75
284,75	3036,85
285,21	3046,05
285,68	3038,00
286,15	3038,35
286,62	3035,42
287,09	3035,52
287,56	3036,98
288,02	3037,90
288,49	3033,20
288,96	3036,58
289,43	3035,32
289,90	3043,40
290,36	3034,85
290,83	3035,08
291,30	3044,70
291,77	3039,32
292,24	3044,35
292,70	3034,95
293,17	3039,35
293,64	3036,22
294,11	3035,48
294,58	3037,62
295,04	3037,65
295,51	3034,42
295,98	3038,30
296,45	3036,48
296,91	3037,78
297,38	3040,70
297,85	3033,95
298,32	3037,25
298,79	3041,68
299,25	3036,48
299,72	3039,45
300,19	3032,85
300,66	3039,98
301,12	3035,45
301,59	3037,35
302,06	3036,40
302,52	3039,60
302,99	3042,20
303,46	3036,88
303,93	3039,38
304,39	3035,18
304,86	3039,78
305,33	3039,65
305,80	3034,62
306,26	3038,78
306,73	3037,90
307,20	3042,58
307,66	3042,58
308,13	3038,95
308,60	3039,15
309,07	3040,28
309,53	3036,90
310,00	3041,52
310,47	3036,92
310,93	3039,60
311,40	3036,45
311,87	3040,88
312,33	3041,72
312,80	3041,28
313,27	3037,02
313,73	3039,22
314,20	3040,35
314,67	3037,35
315,13	3036,45
315,60	3038,92
316,07	3040,78
316,53	3038,88
317,00	3038,80
317,47	3039,08
317,93	3036,40
318,40	3038,02
318,87	3040,10
319,33	3040,02
319,80	3039,08
320,26	3042,12
320,73	3039,68
321,20	3039,42
321,66	3038,90
322,13	3039,40
322,60	3040,98
323,06	3037,30
323,53	3044,75
323,99	3036,35
324,46	3038,42
324,93	3038,95
325,39	3037,40
325,86	3037,85
326,32	3039,20
326,79	3037,92
327,26	3036,65
327,72	3039,25
328,19	3038,60
328,65	3046,28
329,12	3037,62
329,59	3038,95
330,05	3035,70
330,52	3038,45
330,98	3043,60
331,45	3040,30
331,91	3039,32
332,38	3034,40
332,85	3035,15
333,31	3043,08
333,78	3036,90
334,24	3039,12
334,71	3035,50
335,17	3040,32
335,64	3038,35
336,10	3038,65
336,57	3037,92
337,03	3038,32
337,50	3039,92
337,96	3040,20
338,43	3039,45
338,90	3039,65
339,36	3036,05
339,83	3037,32
340,29	3037,45
340,76	3036,75
341,22	3041,22
341,69	3039,18
342,15	3042,68
342,62	3036,88
343,08	3044,88
343,55	3039,02
344,01	3040,12
344,48	3040,70
344,94	3040,18
345,41	3039,75
345,87	3047,22
346,34	3037,30
346,80	3039,52
347,27	3036,95
347,73	3039,08
348,19	3040,78
348,66	3037,88
349,12	3043,92
349,59	3042,80
350,05	3038,50
350,52	3038,40
350,98	3036,85
351,45	3041,62
351,91	3042,70
352,38	3036,52
352,84	3040,92
353,30	3041,45
353,77	3040,92
354,23	3040,72
354,70	3038,48
355,16	3037,00
355,63	3038,70
356,09	3042,00
356,55	3038,20
357,02	3037,62
357,48	3044,80
357,95	3039,28
358,41	3044,00
358,87	3040,35
359,34	3038,28
359,80	3040,55
360,27	3043,22
360,73	3040,72
361,19	3039,35
361,66	3040,58
362,12	3043,10
362,59	3041,88
363,05	3039,85
363,51	3040,45
363,98	3041,82
364,44	3040,52
364,91	3042,10
365,37	3041,92
365,83	3043,88
366,30	3039,48
366,76	3043,95
367,22	3037,65
367,69	3046,60
368,15	3042,22
368,61	3037,70
369,08	3038,62
369,54	3036,78
370,00	3041,10
370,47	3040,62
370,93	3044,18
371,39	3039,60
371,86	3041,82
372,32	3040,48
372,78	3038,98
373,25	3040,02
373,71	3047,32
374,17	3042,50
374,64	3039,35
375,10	3043,15
375,56	3038,42
376,03	3038,48
376,49	3042,22
376,95	3040,10
377,42	3039,52
377,88	3038,60
378,34	3039,30
378,80	3042,48
379,27	3036,25
379,73	3040,38
380,19	3040,55
380,66	3039,58
381,12	3039,25
381,58	3043,62
382,04	3038,98
382,51	3038,92
382,97	3040,32
383,43	3040,38
383,89	3038,12
384,36	3039,75
384,82	3039,92
385,28	3036,90
385,74	3043,60
386,21	3042,10
386,67	3039,12
387,13	3037,00
387,59	3041,72
388,06	3040,48
388,52	3039,52
388,98	3040,00
389,44	3042,08
389,91	3042,80
390,37	3044,25
390,83	3041,80
391,29	3044,80
391,75	3043,80
392,22	3039,48
392,68	3042,35
393,14	3041,10
393,60	3044,25
394,06	3043,00
394,53	3056,18
394,99	3042,15
395,45	3043,52
395,91	3044,08
396,37	3047,22
396,84	3043,95
397,30	3039,65
397,76	3044,42
398,22	3042,95
398,68	3047,15
399,14	3043,28
399,61	3046,35
400,07	3044,52
400,53	3046,02
400,99	3044,30
401,45	3045,85
401,91	3045,40
402,38	3044,30
402,84	3046,25
403,30	3051,68
403,76	3046,65
404,22	3050,35
404,68	3046,68
405,14	3047,80
405,61	3059,28
406,07	3045,95
406,53	3050,95
406,99	3052,62
407,45	3050,55
407,91	3049,60
408,37	3052,08
408,83	3050,60
409,29	3056,02
409,76	3052,10
410,22	3055,72
410,68	3054,10
411,14	3057,15
411,60	3059,95
412,06	3060,35
412,52	3060,32
412,98	3066,75
413,44	3066,08
413,90	3071,32
414,36	3075,72
414,83	3076,72
415,29	3076,52
415,75	3083,00
416,21	3082,75
416,67	3093,92
417,13	3091,48
417,59	3097,48
418,05	3102,58
418,51	3104,78
418,97	3116,78
419,43	3119,20
419,89	3133,12
420,35	3134,02
420,81	3150,28
421,27	3152,70
421,73	3163,12
422,19	3181,92
422,65	3191,38
423,11	3205,18
423,57	3223,08
424,03	3247,45
424,49	3257,48
424,96	3281,22
425,42	3306,18
425,88	3328,60
426,34	3358,85
426,80	3384,90
427,26	3418,30
427,72	3455,70
428,18	3494,50
428,64	3537,12
429,10	3579,10
429,56	3630,18
430,02	3681,28
430,47	3747,62
430,93	3807,00
431,39	3882,10
431,85	3950,88
432,31	4043,38
432,77	4130,25
433,23	4230,18
433,69	4325,38
434,15	4442,08
434,61	4564,52
435,07	4687,98
435,53	4840,58
435,99	4995,78
436,45	5160,98
436,91	5339,02
437,37	5520,58
437,83	5732,18
438,29	5955,65
438,75	6188,70
439,21	6433,95
439,67	6723,10
440,12	7007,00
440,58	7316,85
441,04	7645,25
441,50	8008,20
441,96	8394,88
442,42	8802,55
442,88	9257,85
443,34	9738,92
443,80	10237,42
444,26	10775,55
444,72	11329,62
445,17	11938,12
445,63	12581,10
446,09	13282,00
446,55	14018,92
447,01	14798,35
447,47	15652,08
447,93	16551,58
448,39	17521,60
448,85	18535,48
449,30	19586,60
449,76	20676,20
450,22	21848,20
450,68	23048,48
451,14	24316,50
451,60	25610,82
452,06	26968,60
452,51	28389,32
452,97	29852,68
453,43	31373,60
453,89	32900,12
454,35	34447,15
454,81	36076,25
455,26	37682,05
455,72	39297,08
456,18	40877,32
456,64	42387,20
457,10	43901,38
457,56	45261,68
458,01	46596,98
458,47	47888,00
458,93	48992,75
459,39	50060,30
459,85	51067,72
460,30	51937,65
460,76	52645,52
461,22	53255,05
461,68	53706,42
462,14	54013,75
462,59	54069,98
463,05	54011,90
463,51	53739,38
463,97	53316,20
464,43	52714,45
464,88	51988,38
465,34	51054,20
465,80	50074,22
466,26	49025,15
466,71	47880,92
467,17	46716,85
467,63	45463,52
468,09	44244,08
468,54	42957,92
469,00	41641,38
469,46	40327,12
469,92	39029,65
470,37	37733,12
470,83	36456,15
471,29	35244,28
471,75	34036,92
472,20	32867,70
472,66	31795,48
473,12	30711,95
473,58	29719,82
474,03	28758,15
474,49	27897,35
474,95	27035,65
475,40	26254,70
475,86	25532,40
476,32	24791,45
476,78	24095,22
477,23	23414,48
477,69	22727,80
478,15	22089,08
478,60	21426,65
479,06	20795,62
479,52	20191,12
479,97	19568,28
480,43	18999,25
480,89	18411,55
481,34	17847,02
481,80	17311,45
482,26	16766,88
482,71	16228,52
483,17	15708,45
483,63	15198,30
484,08	14706,32
484,54	14225,48
485,00	13763,02
485,45	13275,82
485,91	12852,48
486,37	12427,78
486,82	12017,72
487,28	11632,65
487,74	11257,45
488,19	10893,62
488,65	10559,28
489,10	10252,02
489,56	9935,82
490,02	9656,50
490,47	9381,65
490,93	9122,72
491,39	8871,32
491,84	8646,10
492,30	8425,40
492,75	8213,90
493,21	8025,72
493,67	7832,80
494,12	7645,70
494,58	7478,45
495,03	7300,05
495,49	7150,20
495,95	6988,20
496,40	6847,72
496,86	6704,15
497,31	6579,32
497,77	6438,92
498,23	6315,85
498,68	6192,40
499,14	6085,90
499,59	5962,10
500,05	5866,80
500,50	5753,50
500,96	5648,78
501,41	5558,60
501,87	5459,68
502,33	5354,40
502,78	5267,62
503,24	5181,55
503,69	5097,32
504,15	5022,05
504,60	4944,28
505,06	4870,65
505,51	4799,65
505,97	4728,22
506,42	4660,82
506,88	4604,30
507,33	4537,48
507,79	4486,52
508,24	4419,38
508,70	4369,65
509,15	4317,15
509,61	4267,35
510,06	4232,05
510,52	4181,12
510,97	4136,95
511,43	4092,88
511,88	4057,62
512,34	4023,42
512,79	3985,20
513,25	3952,38
513,70	3918,48
514,16	3890,35
514,61	3859,08
515,07	3825,12
515,52	3807,70
515,98	3781,00
516,43	3757,00
516,89	3726,28
517,34	3702,05
517,80	3684,45
518,25	3660,72
518,70	3642,00
519,16	3618,72
519,61	3600,98
520,07	3575,35
520,52	3556,18
520,98	3546,52
521,43	3528,52
521,89	3506,92
522,34	3493,30
522,79	3481,22
523,25	3459,45
523,70	3448,58
524,16	3437,72
524,61	3419,55
525,06	3410,95
525,52	3393,32
525,97	3387,18
526,43	3381,75
526,88	3358,78
527,33	3350,38
527,79	3337,32
528,24	3328,65
528,70	3321,62
529,15	3314,02
529,60	3304,50
530,06	3294,12
530,51	3284,48
530,97	3285,45
531,42	3273,32
531,87	3266,28
532,33	3262,08
532,78	3255,95
533,23	3247,12
533,69	3244,60
534,14	3238,78
534,59	3228,70
535,05	3226,08
535,50	3217,92
535,96	3217,98
536,41	3212,50
536,86	3204,95
537,32	3200,38
537,77	3196,95
538,22	3195,52
538,68	3186,00
539,13	3186,90
539,58	3180,95
540,03	3178,98
540,49	3171,78
540,94	3170,45
541,39	3166,42
541,85	3162,08
542,30	3161,78
542,75	3158,92
543,21	3155,88
543,66	3149,45
544,11	3150,10
544,57	3145,78
545,02	3146,85
545,47	3142,45
545,92	3139,45
546,38	3140,85
546,83	3135,70
547,28	3148,10
547,73	3130,62
548,19	3137,00
548,64	3128,65
549,09	3124,82
549,55	3127,10
550,00	3125,42
550,45	3120,45
550,90	3124,80
551,36	3116,52
551,81	3123,50
552,26	3118,10
552,71	3115,50
553,17	3114,10
553,62	3114,25
554,07	3108,60
554,52	3111,00
554,97	3109,65
555,43	3107,02
555,88	3106,42
556,33	3103,05
556,78	3102,72
557,24	3107,12
557,69	3102,72
558,14	3098,25
558,59	3101,72
559,04	3101,88
559,50	3104,12
559,95	3100,65
560,40	3096,10
560,85	3097,22
561,30	3093,85
561,76	3093,68
562,21	3092,20
562,66	3094,72
563,11	3097,48
563,56	3092,98
564,01	3095,05
564,47	3088,70
564,92	3092,12
565,37	3096,48
565,82	3088,15
566,27	3087,25
566,72	3085,62
567,18	3084,38
567,63	3083,38
568,08	3087,15
568,53	3084,32
568,98	3085,05
569,43	3084,18
569,88	3080,75
570,34	3082,32
570,79	3084,65
571,24	3081,10
571,69	3081,82
572,14	3079,90
572,59	3080,70
573,04	3080,90
573,49	3081,60
573,94	3076,50
574,40	3076,18
574,85	3078,18
575,30	3079,90
575,75	3075,30
576,20	3076,50
576,65	3080,22
577,10	3074,40
577,55	3072,55
578,00	3076,12
578,45	3075,22
578,91	3074,32
579,36	3074,55
579,81	3073,35
580,26	3070,78
580,71	3070,28
581,16	3071,70
581,61	3075,72
582,06	3072,60
582,51	3069,72
582,96	3071,65
583,41	3066,80
583,86	3072,68
584,31	3069,15
584,76	3067,72
585,21	3066,58
585,66	3072,28
586,11	3069,08
586,56	3069,02
587,01	3066,55
587,46	3065,12
587,92	3066,32
588,37	3065,82
588,82	3066,00
589,27	3064,75
589,72	3063,32
590,17	3064,25
590,62	3063,48
591,07	3065,00
591,52	3065,60
591,97	3061,18
592,42	3068,15
592,87	3063,45
593,32	3062,28
593,77	3063,68
594,22	3062,02
594,67	3065,02
595,12	3058,95
595,56	3062,58
596,01	3060,12
596,46	3059,45
596,91	3063,10
597,36	3062,98
597,81	3059,48
598,26	3057,40
598,71	3062,50
599,16	3058,68
599,61	3060,85
600,06	3058,40
600,51	3062,05
600,96	3060,02
601,41	3057,22
601,86	3063,05
602,31	3057,25
602,76	3056,72
603,21	3060,58
603,66	3059,15
604,11	3062,25
604,55	3055,82
605,00	3054,25
605,45	3056,18
605,90	3059,88
606,35	3057,30
606,80	3058,68
607,25	3062,28
607,70	3058,28
608,15	3059,35
608,60	3051,88
609,04	3063,62
609,49	3054,78
609,94	3052,48
610,39	3052,50
610,84	3052,15
611,29	3058,45
611,74	3053,60
612,19	3055,35
612,64	3055,12
613,08	3052,00
613,53	3053,10
613,98	3054,75
614,43	3054,28
614,88	3054,45
615,33	3053,50
615,78	3061,40
616,22	3058,02
616,67	3051,55
617,12	3051,75
617,57	3054,65
618,02	3049,08
618,47	3057,88
618,91	3054,90
619,36	3052,35
619,81	3062,20
620,26	3047,02
620,71	3050,50
621,16	3049,95
621,60	3047,25
622,05	3051,30
622,50	3052,22
622,95	3049,98
623,40	3052,32
623,84	3050,62
624,29	3052,62
624,74	3049,35
625,19	3050,90
625,64	3050,72
626,08	3052,55
626,53	3052,15
626,98	3052,92
627,43	3053,32
627,87	3050,08
628,32	3051,05
628,77	3054,02
629,22	3052,18
629,66	3048,22
630,11	3049,35
630,56	3052,00
631,01	3048,18
631,46	3048,55
631,90	3049,70
632,35	3047,40
632,80	3049,42
633,25	3049,28
633,69	3048,22
634,14	3051,45
634,59	3049,35
635,03	3043,25
635,48	3049,32
635,93	3048,20
636,38	3047,20
636,82	3049,52
637,27	3048,80
637,72	3050,48
638,16	3050,55
638,61	3051,68
639,06	3047,22
639,51	3046,28
639,95	3046,52
640,40	3046,35
640,85	3045,32
641,29	3046,50
641,74	3047,02
642,19	3044,78
642,63	3048,20
643,08	3046,32
643,53	3045,72
643,97	3046,62
644,42	3049,62
644,87	3043,00
645,31	3047,55
645,76	3042,68
646,21	3043,30
646,65	3046,98
647,10	3048,85
647,55	3043,70
647,99	3045,52
648,44	3042,68
648,89	3042,22
649,33	3044,68
649,78	3048,08
650,23	3044,60
650,67	3042,68
651,12	3042,82
651,56	3042,90
652,01	3045,48
652,46	3046,50
652,90	3046,32
653,35	3046,20
653,80	3045,90
654,24	3046,15
654,69	3044,55
655,13	3047,10
655,58	3046,55
656,03	3057,25
656,47	3045,58
656,92	3042,38
657,36	3044,22
657,81	3044,92
658,26	3041,88
658,70	3044,85
659,15	3042,58
659,59	3043,20
660,04	3046,72
660,48	3045,90
660,93	3041,50
661,38	3043,32
661,82	3045,55
662,27	3044,40
662,71	3043,82
663,16	3044,58
663,60	3049,42
664,05	3041,55
664,49	3043,88
664,94	3041,90
665,38	3054,12
665,83	3042,08
666,28	3044,95
666,72	3042,02
667,17	3041,52
667,61	3042,22
668,06	3040,40
668,50	3039,00
668,95	3045,68
669,39	3040,52
669,84	3042,75
670,28	3041,65
670,73	3040,18
671,17	3043,92
671,62	3040,05
672,06	3043,15
672,51	3042,18
672,95	3050,60
673,40	3045,05
673,84	3040,88
674,29	3044,68
674,73	3039,70
675,18	3046,25
675,62	3037,88
676,07	3041,90
676,51	3044,42
676,95	3042,45
677,40	3046,08
677,84	3048,70
678,29	3043,18
678,73	3042,50
679,18	3045,08
679,62	3048,82
680,07	3043,60
680,51	3043,15
680,96	3038,02
681,40	3039,55
681,84	3039,15
682,29	3042,02
682,73	3039,58
683,18	3039,78
683,62	3049,92
684,07	3040,18
684,51	3041,50
684,95	3042,02
685,40	3041,42
685,84	3040,18
686,29	3041,55
686,73	3038,62
687,17	3037,75
687,62	3040,35
688,06	3039,70
688,51	3043,62
688,95	3042,08
689,39	3042,88
689,84	3044,95
690,28	3040,55
690,73	3043,38
691,17	3041,00
691,61	3040,18
692,06	3041,80
692,50	3042,10
692,94	3042,25
693,39	3043,78
693,83	3041,72
694,27	3049,70
694,72	3044,18
695,16	3038,72
695,60	3039,80
696,05	3040,02
696,49	3039,05
696,94	3039,80
697,38	3037,28
697,82	3040,75
698,27	3036,98
698,71	3041,78
699,15	3041,50
699,59	3040,35
700,04	3040,08
700,48	3050,18
700,92	3041,25
701,37	3040,18
701,81	3045,82
702,25	3039,90
702,70	3039,88
703,14	3040,30
703,58	3037,68
704,03	3041,80
704,47	3041,95
704,91	3038,98
705,35	3037,48
705,80	3042,48
706,24	3043,65
706,68	3048,85
707,13	3037,98
707,57	3043,25
708,01	3039,08
708,45	3038,68
708,90	3040,70
709,34	3037,58
709,78	3038,42
710,22	3043,55
710,67	3042,02
711,11	3043,00
711,55	3036,70
711,99	3041,15
712,44	3039,25
712,88	3039,75
713,32	3041,08
713,76	3041,75
714,21	3040,25
714,65	3039,32
715,09	3038,95
715,53	3039,88
715,97	3037,40
716,42	3040,10
716,86	3040,88
717,30	3041,08
717,74	3036,25
718,18	3043,80
718,63	3038,95
719,07	3039,40
719,51	3041,12
719,95	3041,12
720,39	3037,12
720,84	3039,78
721,28	3038,10
721,72	3037,75
722,16	3036,78
722,60	3035,55
723,04	3040,15
723,49	3042,60
723,93	3036,18
724,37	3035,98
724,81	3038,60
725,25	3038,85
725,69	3037,65
726,14	3037,65
726,58	3036,42
727,02	3039,68
727,46	3037,92
727,90	3036,35
728,34	3035,10
728,78	3038,38
729,23	3035,95
729,67	3038,82
730,11	3035,80
730,55	3037,40
730,99	3037,52
731,43	3036,62
731,87	3041,15
732,31	3035,82
732,76	3043,12
733,20	3040,75
733,64	3036,85
734,08	3041,98
734,52	3036,85
734,96	3039,52
735,40	3036,62
735,84	3038,50
736,28	3040,62
736,72	3038,68
737,16	3036,75
737,61	3035,60
738,05	3037,98
738,49	3038,28
738,93	3036,82
739,37	3038,42
739,81	3039,10
740,25	3036,98
740,69	3045,12
741,13	3034,60
741,57	3039,45
742,01	3041,45
742,45	3040,25
742,89	3035,72
743,33	3036,95
743,77	3038,58
744,21	3035,35
744,65	3039,55
745,09	3038,35
745,53	3035,22
745,98	3039,58
746,42	3037,92
746,86	3036,28
747,30	3037,75
747,74	3034,15
748,18	3036,02
748,62	3035,18
749,06	3040,40
749,50	3038,85
749,94	3037,72
750,38	3040,75
750,82	3040,85
751,26	3034,45
751,70	3036,28
752,14	3033,82
752,58	3039,58
753,02	3037,48
753,45	3035,78
753,89	3038,60
754,33	3042,90
754,77	3037,12
755,21	3036,88
755,65	3035,90
756,09	3034,98
756,53	3035,98
756,97	3037,02
757,41	3044,38
757,85	3034,02
758,29	3036,50
758,73	3034,98
759,17	3035,00
759,61	3034,92
760,05	3034,88
760,49	3036,42
760,93	3040,15
761,37	3036,25
761,80	3040,22
762,24	3039,22
762,68	3036,75
763,12	3037,45
763,56	3035,80
764,00	3034,10
764,44	3035,75
764,88	3037,32
765,32	3036,50
765,76	3038,38
766,20	3039,20
766,63	3037,20
767,07	3033,65
767,51	3036,25
767,95	3038,75
768,39	3033,28
768,83	3033,78
769,27	3036,35
769,71	3037,58
770,14	3033,58
770,58	3035,32
771,02	3034,12
771,46	3034,90
771,90	3035,82
772,34	3037,35
772,78	3037,45
773,21	3036,62
773,65	3041,58
774,09	3035,52
774,53	3038,08
774,97	3033,05
775,41	3033,38
775,84	3037,05
776,28	3035,70
776,72	3037,18
777,16	3033,62
777,60	3033,98
778,04	3035,90
778,47	3031,45
778,91	3036,72
779,35	3032,00
779,79	3035,60
780,23	3035,98
780,66	3032,68
781,10	3035,70
781,54	3034,85
781,98	3037,25
782,42	3034,12
782,85	3033,88
783,29	3035,18
783,73	3042,75
784,17	3039,02
784,61	3036,00
785,04	3040,65
785,48	3035,55
785,92	3033,68
786,36	3036,85
786,79	3033,45
787,23	3034,52
787,67	3037,18
788,11	3035,02
788,54	3035,58
788,98	3034,85
789,42	3035,82
789,86	3035,32
790,29	3036,65
790,73	3036,92
791,17	3039,08
791,60	3032,82
792,04	3033,18
792,48	3036,90
792,92	3032,40
793,35	3035,05
793,79	3034,48
794,23	3036,70
794,67	3032,68
795,10	3033,20
795,54	3037,10
795,98	3033,08
796,41	3034,78
796,85	3033,65
797,29	3044,52
797,72	3038,78
798,16	3035,10
798,60	3037,42
799,03	3034,90
799,47	3032,58
799,91	3036,12
800,34	3035,35
800,78	3033,82
801,22	3035,18
801,65	3032,05
802,09	3035,48
802,53	3036,60
802,96	3035,45
803,40	3032,98
803,84	3038,28
804,27	3036,25
804,71	3032,40
805,15	3034,60
805,58	3035,30
806,02	3032,02
806,46	3036,22
806,89	3038,60
807,33	3037,60
807,76	3034,98
808,20	3034,65
808,64	3034,78
809,07	3038,35
809,51	3040,25
809,95	3039,38
810,38	3037,00
810,82	3039,60
811,25	3033,05
811,69	3034,88
812,13	3032,35
812,56	3036,02
813,00	3034,25
813,43	3032,55
813,87	3032,30
814,30	3033,88
814,74	3037,58
815,18	3042,10
815,61	3032,32
816,05	3032,58
816,48	3035,35
816,92	3039,25
817,35	3037,02
817,79	3035,78
818,23	3037,80
818,66	3037,05
819,10	3034,82
819,53	3032,02
819,97	3032,82
820,40	3035,05
820,84	3034,10
821,27	3034,22
821,71	3037,72
822,14	3032,45
822,58	3035,02
823,01	3035,32
823,45	3032,08
823,88	3035,18
824,32	3032,82
824,75	3033,10
825,19	3032,02
825,63	3037,32
826,06	3032,12
826,50	3035,45
826,93	3034,95
827,37	3032,88
827,80	3035,68
828,23	3033,70
828,67	3032,68
829,10	3033,50
829,54	3029,90
829,97	3033,40
830,41	3028,80
830,84	3032,98
831,28	3035,75
831,71	3037,48
832,15	3030,68
832,58	3037,62
833,02	3031,95
833,45	3032,22
833,89	3038,02
834,32	3032,90
834,75	3037,80
835,19	3035,05
835,62	3035,70
836,06	3032,32
836,49	3033,98
836,93	3032,22
837,36	3035,40
837,79	3036,00
838,23	3033,70
838,66	3031,38
839,10	3035,55
839,53	3031,70
839,97	3034,48
840,40	3032,05
840,83	3035,45
841,27	3030,22
841,70	3031,00
842,14	3033,48
842,57	3030,82
843,00	3036,42
843,44	3038,55
843,87	3032,00
844,31	3035,88
844,74	3028,92
845,17	3030,45
845,61	3030,42
846,04	3031,58
846,47	3034,68
846,91	3034,05
847,34	3033,70
847,77	3032,05
848,21	3033,42
848,64	3033,78
849,08	3031,98
849,51	3034,65
849,94	3032,05
850,38	3029,92
850,81	3033,50
851,24	3032,35
851,68	3031,88
852,11	3033,28
852,54	3035,40
852,98	3034,82
853,41	3034,22
853,84	3032,78
854,28	3036,98
854,71	3030,20
855,14	3032,92
855,57	3035,78
856,01	3031,40
856,44	3030,45
856,87	3035,05
857,31	3029,90
857,74	3035,28
858,17	3030,48
858,61	3032,75
859,04	3033,72
859,47	3035,45
859,90	3035,15
860,34	3034,60
860,77	3034,05
861,20	3029,88
861,63	3035,08
862,07	3029,82
862,50	3031,15
862,93	3031,82
863,37	3032,35
863,80	3031,70
864,23	3032,72
864,66	3031,35
865,10	3032,22
865,53	3033,15
865,96	3030,78
866,39	3033,02
866,82	3032,85
867,26	3031,80
867,69	3032,22
868,12	3031,15
868,55	3030,85
868,99	3031,22
869,42	3028,62
869,85	3033,18
870,28	3031,18
870,71	3034,10
871,15	3030,88
871,58	3031,95
872,01	3035,02
872,44	3031,85
872,87	3035,18
873,31	3037,95
873,74	3029,88
874,17	3033,50
874,60	3032,60
875,03	3031,12
875,47	3032,72
875,90	3033,50
876,33	3030,18
876,76	3036,42
877,19	3033,08
877,62	3031,10
878,06	3029,45
878,49	3033,75
878,92	3029,12
879,35	3033,48
879,78	3030,08
880,21	3032,55
880,64	3032,25
881,08	3032,10
881,51	3030,38
881,94	3032,72
882,37	3036,90
882,80	3029,48
883,23	3030,78
883,66	3032,52
884,09	3030,85
884,53	3034,88
884,96	3031,00
885,39	3031,28
885,82	3031,78
886,25	3029,60
886,68	3030,48
887,11	3032,88
887,54	3030,72
887,97	3035,70
888,40	3030,30
888,84	3030,90
889,27	3030,62
889,70	3037,22
890,13	3030,12
890,56	3031,45
890,99	3030,95
891,42	3032,08
891,85	3039,30
892,28	3029,10
892,71	3034,12
893,14	3031,48
893,57	3032,75
894,00	3032,55
894,43	3026,10
894,86	3030,38
895,29	3031,55
895,73	3028,48
896,16	3031,45
896,59	3032,25
897,02	3030,88
897,45	3033,28
897,88	3031,50
898,31	3031,20
898,74	3030,42
899,17	3034,45
899,60	3029,48
900,03	3030,80
900,46	3031,30
900,89	3032,22
901,32	3034,02
901,75	3030,88
902,18	3029,72
902,61	3030,78
903,04	3034,30
903,47	3034,02
903,90	3032,22
904,33	3036,08
904,76	3036,40
905,19	3031,30
905,62	3029,70
906,05	3036,22
906,48	3029,42
906,91	3032,52
907,34	3029,60
907,76	3029,42
908,19	3030,35
908,62	3034,00
909,05	3031,58
909,48	3032,18
909,91	3031,25
910,34	3030,82
910,77	3032,70
911,20	3033,98
911,63	3033,60
912,06	3028,10
912,49	3033,10
912,92	3031,68
913,35	3031,45
913,78	3030,10
914,21	3030,12
914,63	3030,42
915,06	3030,50
915,49	3032,90
915,92	3031,95
916,35	3030,95
916,78	3027,95
917,21	3028,55
917,64	3030,55
918,07	3029,65
918,50	3032,48
918,92	3030,68
919,35	3033,40
919,78	3029,80
920,21	3032,85
920,64	3030,35
921,07	3030,25
921,50	3032,30
921,93	3033,45
922,35	3033,38
922,78	3031,00
923,21	3034,50
923,64	3030,92
924,07	3028,62
924,50	3029,92
924,92	3028,20
925,35	3031,20
925,78	3034,28
926,21	3033,02
926,64	3028,48
927,07	3030,95
927,49	3029,30
927,92	3033,12
928,35	3038,18
928,78	3030,20
929,21	3033,22
929,64	3029,12
930,06	3034,85
930,49	3031,00
930,92	3028,88
931,35	3034,28
931,78	3031,02
932,20	3033,12
932,63	3034,00
933,06	3029,85
933,49	3030,75
933,92	3028,02
934,34	3035,62
934,77	3034,28
935,20	3039,88
935,63	3032,25
936,05	3034,50
936,48	3033,00
936,91	3032,70
937,34	3032,02
937,76	3027,18
938,19	3032,15
938,62	3029,02
939,05	3031,02
939,47	3029,58
939,90	3033,02
940,33	3028,80
940,76	3030,45
941,18	3032,22
941,61	3028,05
942,04	3031,28
942,47	3034,30
942,89	3035,78
943,32	3029,90
943,75	3033,45
944,17	3029,05
944,60	3029,20
945,03	3032,25
945,46	3029,40
945,88	3028,28
946,31	3033,45
946,74	3028,12
947,16	3032,90
947,59	3030,95
948,02	3032,00
948,44	3032,68
948,87	3032,70
949,30	3030,12
949,72	3031,35
950,15	3030,50
950,58	3029,08
951,00	3027,58
951,43	3029,38
951,86	3038,00
952,28	3034,32
952,71	3029,60
953,14	3028,50
953,56	3033,45
953,99	3026,98
954,42	3032,15
954,84	3031,68
955,27	3035,68
955,70	3027,70
956,12	3030,52
956,55	3031,32
956,98	3030,00
957,40	3029,90
957,83	3031,00
958,25	3030,12
958,68	3033,35
959,11	3038,12
959,53	3029,28
959,96	3031,18
960,38	3031,30
960,81	3030,48
961,24	3028,88
961,66	3029,88
962,09	3027,10
962,51	3029,55
962,94	3035,00
963,37	3033,50
963,79	3033,58
964,22	3031,70
964,64	3029,32
965,07	3031,72
965,49	3030,90
965,92	3031,05
966,35	3031,05
966,77	3030,05
967,20	3034,40
967,62	3031,62
968,05	3031,85
968,47	3032,98
968,90	3029,70
969,32	3030,60
969,75	3033,25
970,17	3042,00
970,60	3033,35
971,03	3029,62
971,45	3031,78
971,88	3029,80
972,30	3030,35
972,73	3031,95
973,15	3030,25
973,58	3031,00
974,00	3028,62
974,43	3029,88
974,85	3029,50
975,28	3032,65
975,70	3030,90
976,13	3030,88
976,55	3030,65
976,98	3030,92
977,40	3029,32
977,83	3029,65
978,25	3029,72
978,68	3027,32
979,10	3032,05
979,53	3030,35
979,95	3030,18
980,37	3029,08
980,80	3030,18
981,22	3033,75
981,65	3031,42
982,07	3030,05
982,50	3031,52
982,92	3032,35
983,35	3031,12
983,77	3030,05
984,20	3029,85
984,62	3029,95
985,04	3029,58
985,47	3032,40
985,89	3034,18
986,32	3029,25
986,74	3025,85
987,17	3028,88
987,59	3032,00
988,01	3031,00
988,44	3028,78
988,86	3032,30
989,29	3030,20
989,71	3030,80
990,13	3028,12
990,56	3031,88
990,98	3031,58
991,41	3030,85
991,83	3029,75
992,25	3030,22
992,68	3032,35
993,10	3036,58
993,53	3029,70
993,95	3027,68
994,37	3029,50
994,80	3029,82
995,22	3027,25
995,64	3033,48
996,07	3031,85
996,49	3031,52
996,91	3030,28
997,34	3027,28
997,76	3027,85
998,18	3027,32
998,61	3034,18
999,03	3033,45
999,45	3029,65
999,88	3029,20
1000,30	3027,05
1000,72	3036,00
1001,15	3030,40
1001,57	3032,05
1001,99	3032,58
1002,42	3028,30
1002,84	3030,60
1003,26	3033,30
1003,69	3028,82
1004,11	3031,85
1004,53	3029,50
1004,96	3031,55
1005,38	3029,90
1005,80	3031,78
1006,22	3030,82
1006,65	3032,08
1007,07	3031,12
1007,49	3029,28
1007,92	3032,32
1008,34	3030,68
1008,76	3030,40
1009,18	3027,58
1009,61	3029,15
1010,03	3028,72
1010,45	3039,98
1010,87	3034,05
1011,30	3032,48
1011,72	3031,08
1012,14	3031,65
1012,56	3033,50
1012,99	3029,92
1013,41	3033,00
1013,83	3030,28
1014,25	3032,62
1014,68	3030,28
1015,10	3028,28
1015,52	3034,78
1015,94	3029,15
1016,37	3032,70
1016,79	3030,35
1017,21	3030,70
1017,63	3028,58
1018,05	3032,58
1018,48	3029,82
1018,90	3030,22
1019,32	3031,25
1019,74	3028,78
1020,16	3038,18
1020,59	3033,55
1021,01	3031,78
1021,43	3030,35
1021,85	3030,05
1022,27	3030,55
1022,69	3031,05
1023,12	3031,65
1023,54	3030,10
1023,96	3039,28
1024,38	3034,52
1024,80	3031,80
1025,22	3031,78
1025,65	3030,25
1026,07	3031,10
1026,49	3033,95
1026,91	3029,45
1027,33	3029,60
1027,75	3037,50
1028,17	3032,32
1028,60	3032,30
1029,02	3030,48
1029,44	3031,92
1029,86	3029,62
1030,28	3036,85
1030,70	3030,82
1031,12	3031,92
1031,54	3034,30
1031,97	3035,68
1032,39	3030,45
1032,81	3031,90
1033,23	3033,20
1033,65	3030,45
1034,07	3032,45
1034,49	3029,68
1034,91	3030,40
1035,33	3032,20
1035,75	3032,12
1036,18	3027,75
1036,60	3034,05
1037,02	3030,78
1037,44	3031,32
1037,86	3030,20
1038,28	3027,10
1038,70	3034,00
1039,12	3032,85
1039,54	3031,62
1039,96	3037,05
1040,38	3032,55
1040,80	3029,75
1041,22	3029,25
1041,64	3032,18
1042,06	3029,92
1042,48	3035,02
1042,90	3032,55
1043,32	3032,55
1043,74	3032,60
1044,17	3031,75
1044,59	3034,25
1045,01	3027,32
1045,43	3031,08
1045,85	3030,32
1046,27	3026,68
1046,69	3031,92
1047,11	3032,42
1047,53	3030,68
1047,95	3032,25
1048,37	3032,92
1048,79	3029,98
1049,21	3032,70
1049,63	3031,82
1050,05	3033,95
1050,47	3031,30
1050,89	3031,78
1051,31	3032,68
1051,72	3031,48
1052,14	3033,78
1052,56	3033,22
1052,98	3033,15
1053,40	3032,52
1053,82	3026,90
1054,24	3033,05
1054,66	3026,95
1055,08	3030,88
1055,50	3030,00
1055,92	3031,02
1056,34	3034,10
1056,76	3036,35
1057,18	3035,10
1057,60	3034,55
1058,02	3031,95
1058,44	3042,02
1058,86	3028,55
1059,28	3031,30
1059,69	3032,90
1060,11	3031,50
1060,53	3032,92
1060,95	3031,98
1061,37	3033,65
1061,79	3030,42
1062,21	3031,62
1062,63	3033,28
1063,05	3034,92
1063,47	3030,05
1063,88	3030,38
1064,30	3030,45
1064,72	3033,48
1065,14	3034,62
1065,56	3030,32
1065,98	3028,12
1066,40	3030,20
1066,82	3033,65
1067,23	3032,30
1067,65	3030,55
1068,07	3031,68
1068,49	3028,68
1068,91	3035,02
1069,33	3032,62
1069,75	3029,62
1070,16	3029,48
1070,58	3032,70
1071,00	3032,10
1071,42	3033,00
1071,84	3032,10
1072,26	3034,02
1072,67	3030,25
1073,09	3029,25
1073,51	3029,15
1073,93	3032,58
1074,35	3030,40
1074,77	3029,90
1075,18	3028,65
1075,60	3031,42
1076,02	3032,58
1076,44	3032,10
1076,86	3027,98
1077,27	3030,42
1077,69	3032,90
1078,11	3030,98
1078,53	3032,48
1078,94	3035,22
1079,36	3026,45
1079,78	3032,82
1080,20	3031,85
1080,62	3031,08
1081,03	3032,02
1081,45	3031,75
1081,87	3030,08
1082,29	3033,02
1082,70	3030,52
1083,12	3031,80
1083,54	3031,90
1083,96	3029,90
1084,37	3033,18
1084,79	3031,45
1085,21	3031,62
1085,63	3035,78
1086,04	3030,42
1086,46	3028,52
1086,88	3033,25
1087,30	3030,20
1087,71	3035,40
1088,13	3161,18
1088,55	3031,52
1088,96	3030,20
1089,38	3030,92
1089,80	3031,60
1090,22	3034,92
1090,63	3030,22
1091,05	3029,82
1091,47	3031,82
1091,88	3033,35
1092,30	3028,35
1092,72	3032,35
1093,13	3031,00
1093,55	3032,85
1093,97	3030,22
1094,38	3030,98
1094,80	3031,02
1095,22	3031,15
1095,63	3030,58
1096,05	3031,42
1096,47	3032,42
1096,88	3030,25
1097,30	3031,70
1097,72	3029,65
1098,13	3031,35
1098,55	3033,02
1098,97	3035,42
1099,38	3030,35
1099,80	3031,98
1100,21	3029,82
1100,63	3029,95
1101,05	3031,25
1101,46	3031,22
1101,88	3030,60
1102,30	3029,92
1102,71	3030,02
1103,13	3032,10
1103,54	3032,90
1103,96	3031,18
1104,38	3037,58
1104,79	3028,52
1105,21	3031,12
1105,62	3030,08
1106,04	3029,40
1106,46	3030,15
1106,87	3027,78
1107,29	3028,88
1107,70	3033,25
1108,12	3028,12
1108,54	3032,28
1108,95	3031,40
1109,37	3031,80
1109,78	3027,58
1110,20	3029,98
1110,61	3029,00
1111,03	3029,00
1111,44	3029,00
1111,86	3029,00
1112,28	3029,00
1112,69	3029,00
1113,11	3029,00
1113,52	3029,00
1113,94	3029,00
1114,35	3029,00
1114,77	3029,00
1115,18	3029,00
1115,60	3029,00
1116,01	3029,00
1116,43	3029,00
1116,84	3029,00
1117,26	3029,00
1117,67	3029,00
1118,09	3029,00
1118,50	3029,00
1118,92	3029,00
>>>>>End Processed Spectral Data<<<<<
