SpectraSuite Data File
++++++++++++++++++++++++++++++++++++
Date: Tue Jul 12 15:22:18 EEST 2011
User: OO Maya
Dark Spectrum Present: No
Reference Spectrum Present: No
Number of Sampled Component Spectra: 1
Spectrometers: MAYP11278
Integration Time (usec): 25000 (MAYP11278)
Spectra Averaged: 40 (MAYP11278)
Boxcar Smoothing: 0 (MAYP11278)
Correct for Electrical Dark: No (MAYP11278)
Strobe/Lamp Enabled: No (MAYP11278)
Correct for Detector Non-linearity: No (MAYP11278)
Correct for Stray Light: No (MAYP11278)
Number of Pixels in Processed Spectrum: 2068
>>>>>Begin Processed Spectral Data<<<<<
200,00	3038,18
200,47	2989,12
200,95	2989,60
201,42	2985,55
201,89	3023,40
202,37	3024,42
202,84	3023,05
203,31	3024,72
203,79	3028,28
204,26	3026,92
204,73	3023,78
205,20	3026,38
205,68	3029,05
206,15	3028,18
206,62	3030,05
207,10	3028,10
207,57	3029,42
208,04	3027,78
208,51	3025,40
208,99	3033,72
209,46	3026,88
209,93	3024,12
210,41	3024,65
210,88	3025,00
211,35	3027,22
211,82	3028,72
212,30	3027,92
212,77	3026,82
213,24	3030,95
213,71	3029,25
214,19	3030,18
214,66	3024,72
215,13	3027,18
215,60	3024,08
216,08	3029,05
216,55	3030,42
217,02	3026,92
217,49	3025,70
217,96	3029,48
218,44	3027,62
218,91	3028,58
219,38	3035,22
219,85	3028,58
220,33	3029,02
220,80	3028,05
221,27	3029,22
221,74	3029,50
222,21	3027,48
222,69	3027,75
223,16	3030,62
223,63	3028,78
224,10	3028,00
224,57	3032,58
225,04	3029,52
225,52	3026,00
225,99	3032,88
226,46	3028,02
226,93	3031,92
227,40	3027,72
227,87	3028,12
228,35	3029,22
228,82	3028,40
229,29	3026,60
229,76	3028,32
230,23	3031,22
230,70	3024,52
231,18	3027,08
231,65	3026,88
232,12	3028,20
232,59	3031,05
233,06	3027,18
233,53	3031,72
234,00	3024,70
234,48	3031,38
234,95	3026,35
235,42	3028,22
235,89	3028,85
236,36	3026,62
236,83	3025,85
237,30	3026,65
237,77	3026,70
238,24	3027,28
238,72	3030,70
239,19	3027,32
239,66	3029,30
240,13	3029,25
240,60	3031,10
241,07	3029,02
241,54	3027,78
242,01	3028,22
242,48	3031,00
242,95	3032,08
243,42	3026,32
243,90	3028,60
244,37	3025,58
244,84	3027,50
245,31	3027,78
245,78	3035,98
246,25	3027,38
246,72	3026,58
247,19	3027,15
247,66	3025,85
248,13	3030,28
248,60	3031,85
249,07	3026,85
249,54	3029,05
250,01	3027,35
250,48	3028,68
250,95	3026,48
251,42	3024,30
251,89	3029,85
252,36	3029,28
252,83	3028,22
253,30	3026,85
253,77	3028,82
254,24	3031,90
254,71	3024,78
255,18	3023,95
255,65	3030,12
256,12	3033,05
256,59	3027,80
257,06	3031,90
257,53	3031,52
258,00	3026,52
258,47	3028,58
258,94	3028,18
259,41	3028,02
259,88	3028,60
260,35	3024,65
260,82	3027,38
261,29	3031,38
261,76	3029,32
262,23	3031,78
262,70	3027,10
263,17	3034,08
263,64	3031,50
264,11	3025,90
264,58	3031,60
265,05	3027,90
265,52	3026,58
265,99	3029,10
266,46	3028,70
266,93	3032,58
267,40	3027,98
267,87	3029,25
268,34	3028,62
268,81	3030,25
269,28	3037,72
269,74	3029,12
270,21	3027,80
270,68	3029,40
271,15	3030,00
271,62	3033,20
272,09	3027,82
272,56	3026,08
273,03	3033,28
273,50	3027,70
273,97	3029,82
274,44	3027,90
274,90	3024,78
275,37	3032,20
275,84	3030,42
276,31	3028,30
276,78	3028,65
277,25	3030,32
277,72	3030,82
278,19	3027,55
278,66	3030,00
279,12	3029,08
279,59	3029,72
280,06	3023,15
280,53	3027,02
281,00	3029,00
281,47	3029,28
281,94	3031,40
282,40	3029,38
282,87	3029,08
283,34	3027,55
283,81	3025,65
284,28	3024,25
284,75	3029,05
285,21	3039,88
285,68	3031,35
286,15	3029,72
286,62	3027,95
287,09	3028,60
287,56	3031,60
288,02	3031,22
288,49	3026,32
288,96	3027,15
289,43	3026,42
289,90	3040,25
290,36	3027,98
290,83	3026,62
291,30	3040,92
291,77	3032,45
292,24	3035,92
292,70	3027,80
293,17	3031,68
293,64	3028,45
294,11	3028,58
294,58	3031,82
295,04	3029,40
295,51	3026,72
295,98	3031,90
296,45	3029,10
296,91	3029,65
297,38	3031,12
297,85	3025,72
298,32	3030,98
298,79	3031,98
299,25	3027,85
299,72	3031,95
300,19	3025,20
300,66	3031,58
301,12	3025,45
301,59	3029,50
302,06	3028,40
302,52	3032,35
302,99	3033,32
303,46	3025,88
303,93	3034,18
304,39	3026,82
304,86	3031,58
305,33	3029,10
305,80	3025,55
306,26	3029,22
306,73	3028,00
307,20	3034,40
307,66	3035,40
308,13	3028,72
308,60	3030,38
309,07	3030,68
309,53	3028,08
310,00	3033,45
310,47	3028,12
310,93	3031,38
311,40	3026,42
311,87	3030,38
312,33	3032,02
312,80	3032,58
313,27	3027,82
313,73	3029,80
314,20	3029,90
314,67	3027,22
315,13	3027,85
315,60	3026,32
316,07	3028,55
316,53	3031,75
317,00	3029,48
317,47	3030,50
317,93	3026,95
318,40	3027,65
318,87	3029,18
319,33	3026,75
319,80	3030,92
320,26	3030,88
320,73	3029,78
321,20	3031,48
321,66	3030,58
322,13	3028,85
322,60	3031,42
323,06	3029,18
323,53	3032,70
323,99	3027,98
324,46	3027,72
324,93	3029,58
325,39	3027,60
325,86	3026,95
326,32	3031,88
326,79	3029,70
327,26	3029,28
327,72	3028,65
328,19	3028,65
328,65	3036,68
329,12	3028,70
329,59	3027,38
330,05	3026,70
330,52	3030,50
330,98	3036,22
331,45	3031,08
331,91	3028,48
332,38	3024,52
332,85	3025,10
333,31	3033,52
333,78	3027,85
334,24	3028,10
334,71	3025,20
335,17	3030,70
335,64	3028,75
336,10	3026,72
336,57	3029,15
337,03	3028,25
337,50	3030,72
337,96	3030,88
338,43	3027,38
338,90	3030,45
339,36	3029,80
339,83	3030,30
340,29	3028,70
340,76	3027,10
341,22	3030,25
341,69	3029,25
342,15	3034,35
342,62	3027,30
343,08	3034,95
343,55	3029,55
344,01	3029,35
344,48	3031,58
344,94	3029,82
345,41	3030,32
345,87	3039,85
346,34	3026,82
346,80	3029,68
347,27	3029,60
347,73	3033,52
348,19	3027,58
348,66	3028,02
349,12	3034,02
349,59	3030,70
350,05	3024,85
350,52	3028,02
350,98	3027,15
351,45	3032,08
351,91	3032,15
352,38	3027,15
352,84	3029,10
353,30	3032,00
353,77	3031,18
354,23	3027,15
354,70	3029,90
355,16	3026,85
355,63	3029,68
356,09	3031,28
356,55	3027,60
357,02	3028,70
357,48	3033,20
357,95	3026,28
358,41	3033,78
358,87	3028,90
359,34	3026,68
359,80	3028,75
360,27	3031,08
360,73	3029,68
361,19	3028,25
361,66	3031,08
362,12	3033,82
362,59	3032,50
363,05	3028,75
363,51	3028,38
363,98	3030,72
364,44	3030,32
364,91	3030,58
365,37	3030,40
365,83	3033,90
366,30	3028,38
366,76	3035,30
367,22	3027,38
367,69	3038,82
368,15	3030,52
368,61	3025,58
369,08	3026,62
369,54	3028,50
370,00	3029,32
370,47	3031,55
370,93	3032,48
371,39	3030,18
371,86	3027,82
372,32	3028,88
372,78	3027,45
373,25	3029,75
373,71	3036,10
374,17	3030,58
374,64	3026,55
375,10	3030,75
375,56	3026,42
376,03	3026,52
376,49	3028,68
376,95	3028,92
377,42	3029,50
377,88	3026,45
378,34	3026,90
378,80	3031,65
379,27	3023,92
379,73	3031,50
380,19	3029,42
380,66	3027,85
381,12	3027,15
381,58	3029,90
382,04	3027,05
382,51	3025,45
382,97	3029,70
383,43	3029,08
383,89	3025,75
384,36	3026,78
384,82	3030,25
385,28	3024,12
385,74	3030,58
386,21	3027,08
386,67	3026,35
387,13	3026,30
387,59	3029,75
388,06	3027,75
388,52	3026,95
388,98	3027,92
389,44	3028,40
389,91	3031,70
390,37	3032,30
390,83	3028,20
391,29	3031,18
391,75	3031,60
392,22	3025,50
392,68	3029,12
393,14	3027,78
393,60	3030,75
394,06	3030,35
394,53	3043,12
394,99	3029,15
395,45	3028,32
395,91	3028,38
396,37	3035,18
396,84	3027,38
397,30	3025,65
397,76	3030,58
398,22	3029,28
398,68	3031,58
399,14	3027,28
399,61	3031,80
400,07	3028,40
400,53	3028,22
400,99	3030,82
401,45	3030,42
401,91	3027,75
402,38	3027,20
402,84	3027,58
403,30	3035,82
403,76	3029,08
404,22	3030,00
404,68	3026,40
405,14	3030,30
405,61	3041,62
406,07	3026,95
406,53	3030,95
406,99	3032,25
407,45	3028,42
407,91	3028,55
408,37	3026,78
408,83	3028,62
409,29	3031,85
409,76	3026,38
410,22	3029,40
410,68	3027,48
411,14	3031,58
411,60	3029,32
412,06	3029,20
412,52	3028,85
412,98	3032,18
413,44	3029,15
413,90	3032,10
414,36	3035,98
414,83	3031,20
415,29	3027,90
415,75	3031,48
416,21	3029,78
416,67	3035,78
417,13	3030,15
417,59	3029,80
418,05	3030,00
418,51	3028,38
418,97	3031,15
419,43	3028,08
419,89	3032,78
420,35	3027,60
420,81	3032,40
421,27	3029,20
421,73	3025,55
422,19	3030,28
422,65	3028,05
423,11	3030,22
423,57	3032,68
424,03	3034,02
424,49	3029,78
424,96	3035,00
425,42	3030,95
425,88	3031,00
426,34	3034,82
426,80	3033,00
427,26	3028,92
427,72	3030,62
428,18	3030,45
428,64	3031,72
429,10	3028,85
429,56	3032,40
430,02	3027,20
430,47	3034,55
430,93	3029,05
431,39	3030,58
431,85	3029,02
432,31	3027,50
432,77	3032,70
433,23	3033,05
433,69	3028,65
434,15	3032,48
434,61	3029,20
435,07	3034,72
435,53	3030,28
435,99	3033,95
436,45	3031,15
436,91	3032,95
437,37	3028,20
437,83	3032,40
438,29	3031,70
438,75	3031,35
439,21	3030,38
439,67	3040,38
440,12	3028,48
440,58	3032,42
441,04	3035,52
441,50	3035,38
441,96	3031,12
442,42	3030,65
442,88	3032,28
443,34	3028,22
443,80	3031,72
444,26	3027,70
444,72	3031,25
445,17	3030,12
445,63	3026,25
446,09	3033,28
446,55	3031,45
447,01	3032,48
447,47	3029,92
447,93	3031,00
448,39	3042,70
448,85	3032,18
449,30	3034,18
449,76	3034,70
450,22	3028,78
450,68	3032,10
451,14	3037,70
451,60	3028,90
452,06	3030,90
452,51	3031,38
452,97	3027,88
453,43	3036,38
453,89	3031,10
454,35	3030,55
454,81	3031,40
455,26	3031,00
455,72	3029,32
456,18	3032,35
456,64	3027,68
457,10	3030,78
457,56	3033,60
458,01	3032,78
458,47	3030,50
458,93	3031,90
459,39	3029,78
459,85	3029,98
460,30	3029,98
460,76	3033,00
461,22	3026,82
461,68	3032,82
462,14	3029,85
462,59	3030,10
463,05	3031,82
463,51	3034,05
463,97	3030,28
464,43	3031,22
464,88	3033,75
465,34	3029,88
465,80	3036,52
466,26	3029,20
466,71	3030,80
467,17	3026,00
467,63	3031,90
468,09	3030,82
468,54	3030,10
469,00	3029,35
469,46	3026,42
469,92	3034,52
470,37	3030,70
470,83	3028,35
471,29	3028,28
471,75	3032,60
472,20	3030,30
472,66	3032,08
473,12	3031,32
473,58	3029,32
474,03	3028,75
474,49	3034,45
474,95	3030,10
475,40	3030,90
475,86	3033,28
476,32	3028,72
476,78	3031,82
477,23	3031,10
477,69	3030,82
478,15	3029,48
478,60	3032,35
479,06	3031,78
479,52	3029,60
479,97	3030,50
480,43	3027,40
480,89	3029,42
481,34	3028,62
481,80	3033,55
482,26	3030,45
482,71	3029,30
483,17	3030,58
483,63	3029,10
484,08	3031,98
484,54	3031,38
485,00	3032,65
485,45	3031,32
485,91	3030,60
486,37	3035,62
486,82	3031,00
487,28	3034,52
487,74	3028,80
488,19	3035,80
488,65	3031,52
489,10	3031,60
489,56	3028,85
490,02	3032,92
490,47	3033,25
490,93	3029,55
491,39	3033,05
491,84	3029,35
492,30	3031,98
492,75	3036,30
493,21	3033,82
493,67	3030,85
494,12	3027,18
494,58	3031,22
495,03	3027,32
495,49	3032,28
495,95	3030,40
496,40	3028,98
496,86	3033,08
497,31	3034,60
497,77	3032,90
498,23	3034,98
498,68	3028,88
499,14	3033,20
499,59	3027,30
500,05	3030,32
500,50	3029,25
500,96	3035,88
501,41	3034,30
501,87	3033,45
502,33	3031,58
502,78	3033,70
503,24	3031,75
503,69	3031,28
504,15	3034,68
504,60	3030,85
505,06	3032,52
505,51	3036,85
505,97	3034,82
506,42	3033,50
506,88	3033,08
507,33	3031,82
507,79	3040,10
508,24	3034,02
508,70	3031,10
509,15	3033,50
509,61	3032,62
510,06	3035,05
510,52	3032,85
510,97	3031,90
511,43	3033,05
511,88	3034,68
512,34	3031,65
512,79	3034,42
513,25	3035,58
513,70	3031,55
514,16	3032,58
514,61	3034,75
515,07	3032,95
515,52	3033,40
515,98	3034,52
516,43	3032,22
516,89	3031,30
517,34	3030,70
517,80	3032,00
518,25	3032,92
518,70	3032,80
519,16	3036,75
519,61	3036,52
520,07	3032,12
520,52	3029,80
520,98	3032,60
521,43	3037,02
521,89	3029,42
522,34	3037,30
522,79	3038,08
523,25	3030,58
523,70	3033,88
524,16	3036,60
524,61	3037,20
525,06	3042,02
525,52	3035,00
525,97	3033,75
526,43	3045,78
526,88	3030,80
527,33	3031,28
527,79	3032,05
528,24	3031,72
528,70	3034,90
529,15	3032,78
529,60	3035,52
530,06	3035,20
530,51	3031,32
530,97	3038,08
531,42	3033,28
531,87	3033,90
532,33	3035,55
532,78	3034,75
533,23	3035,55
533,69	3036,85
534,14	3035,42
534,59	3035,58
535,05	3033,68
535,50	3033,82
535,96	3037,10
536,41	3036,78
536,86	3031,90
537,32	3031,08
537,77	3036,60
538,22	3036,05
538,68	3030,20
539,13	3036,35
539,58	3033,88
540,03	3033,88
540,49	3033,82
540,94	3035,68
541,39	3033,60
541,85	3031,40
542,30	3035,15
542,75	3035,70
543,21	3035,72
543,66	3033,60
544,11	3035,95
544,57	3034,38
545,02	3034,80
545,47	3035,50
545,92	3033,75
546,38	3039,92
546,83	3038,62
547,28	3051,25
547,73	3031,90
548,19	3040,05
548,64	3036,48
549,09	3033,68
549,55	3039,15
550,00	3036,10
550,45	3033,95
550,90	3042,35
551,36	3033,42
551,81	3042,02
552,26	3038,75
552,71	3036,38
553,17	3036,52
553,62	3039,40
554,07	3036,70
554,52	3040,12
554,97	3039,35
555,43	3037,18
555,88	3037,62
556,33	3037,82
556,78	3037,08
557,24	3043,62
557,69	3038,75
558,14	3035,30
558,59	3039,75
559,04	3038,70
559,50	3045,50
559,95	3041,58
560,40	3038,42
560,85	3043,08
561,30	3041,38
561,76	3039,88
562,21	3042,12
562,66	3041,75
563,11	3048,25
563,56	3042,75
564,01	3048,12
564,47	3040,52
564,92	3045,80
565,37	3051,65
565,82	3046,78
566,27	3043,82
566,72	3045,00
567,18	3046,92
567,63	3046,20
568,08	3049,60
568,53	3051,05
568,98	3051,10
569,43	3051,48
569,88	3050,65
570,34	3055,55
570,79	3056,30
571,24	3055,18
571,69	3059,08
572,14	3058,15
572,59	3060,25
573,04	3065,02
573,49	3068,78
573,94	3066,05
574,40	3067,80
574,85	3071,15
575,30	3075,92
575,75	3073,18
576,20	3077,30
576,65	3084,10
577,10	3083,45
577,55	3087,05
578,00	3091,40
578,45	3095,52
578,91	3098,55
579,36	3105,00
579,81	3108,10
580,26	3109,90
580,71	3114,82
581,16	3123,18
581,61	3129,52
582,06	3137,08
582,51	3137,60
582,96	3147,08
583,41	3151,08
583,86	3168,05
584,31	3171,25
584,76	3178,40
585,21	3187,05
585,66	3206,55
586,11	3207,38
586,56	3220,45
587,01	3236,55
587,46	3250,00
587,92	3261,12
588,37	3272,88
588,82	3289,70
589,27	3306,35
589,72	3320,52
590,17	3337,40
590,62	3358,75
591,07	3372,52
591,52	3400,02
591,97	3414,82
592,42	3447,48
592,87	3467,00
593,32	3489,90
593,77	3516,25
594,22	3548,15
594,67	3582,40
595,12	3604,78
595,56	3642,65
596,01	3673,42
596,46	3710,08
596,91	3754,90
597,36	3788,20
597,81	3830,20
598,26	3876,42
598,71	3928,85
599,16	3972,88
599,61	4023,28
600,06	4076,50
600,51	4144,55
600,96	4197,05
601,41	4259,60
601,86	4334,78
602,31	4397,70
602,76	4470,55
603,21	4558,98
603,66	4636,00
604,11	4725,58
604,55	4813,18
605,00	4909,75
605,45	5007,78
605,90	5119,90
606,35	5222,08
606,80	5343,18
607,25	5471,48
607,70	5597,25
608,15	5736,28
608,60	5872,60
609,04	6032,32
609,49	6177,65
609,94	6337,78
610,39	6510,48
610,84	6685,70
611,29	6876,15
611,74	7075,50
612,19	7290,40
612,64	7497,18
613,08	7735,38
613,53	7955,82
613,98	8209,48
614,43	8479,12
614,88	8760,80
615,33	9046,45
615,78	9360,08
616,22	9666,10
616,67	10014,18
617,12	10354,32
617,57	10724,38
618,02	11100,25
618,47	11492,00
618,91	11911,92
619,36	12337,50
619,81	12794,50
620,26	13249,95
620,71	13724,10
621,16	14229,60
621,60	14737,42
622,05	15254,62
622,50	15790,45
622,95	16343,15
623,40	16910,90
623,84	17515,65
624,29	18129,68
624,74	18798,12
625,19	19423,88
625,64	20139,70
626,08	20900,75
626,53	21665,58
626,98	22482,15
627,43	23318,62
627,87	24230,05
628,32	25182,98
628,77	26170,30
629,22	27259,62
629,66	28387,50
630,11	29556,90
630,56	30827,05
631,01	32066,42
631,46	33400,85
631,90	34735,22
632,35	36145,65
632,80	37531,82
633,25	38956,50
633,69	40410,60
634,14	41865,32
634,59	43227,02
635,03	44622,88
635,48	46068,72
635,93	47507,38
636,38	48925,08
636,82	50319,68
637,27	51716,80
637,72	53108,50
638,16	54473,88
638,61	55749,72
639,06	56925,98
639,51	57994,50
639,95	58737,90
640,40	59192,05
640,85	59292,25
641,29	58987,90
641,74	58289,58
642,19	57215,08
642,63	55717,70
643,08	53885,78
643,53	51704,82
643,97	49322,30
644,42	46781,00
644,87	44198,50
645,31	41597,02
645,76	39086,80
646,21	36701,42
646,65	34417,62
647,10	32317,18
647,55	30313,18
647,99	28497,65
648,44	26823,45
648,89	25308,00
649,33	23899,58
649,78	22648,90
650,23	21452,98
650,67	20348,00
651,12	19305,95
651,56	18314,48
652,01	17365,48
652,46	16531,28
652,90	15729,02
653,35	14968,98
653,80	14217,35
654,24	13522,18
654,69	12847,70
655,13	12205,32
655,58	11619,85
656,03	11082,52
656,47	10532,35
656,92	10029,45
657,36	9523,02
657,81	9070,40
658,26	8628,95
658,70	8242,58
659,15	7865,72
659,59	7520,60
660,04	7195,48
660,48	6907,32
660,93	6627,08
661,38	6372,55
661,82	6126,88
662,27	5914,68
662,71	5712,15
663,16	5521,85
663,60	5359,60
664,05	5204,08
664,49	5062,65
664,94	4927,62
665,38	4822,70
665,83	4691,08
666,28	4591,70
666,72	4488,82
667,17	4394,08
667,61	4310,42
668,06	4239,18
668,50	4164,92
668,95	4095,48
669,39	4031,38
669,84	3958,55
670,28	3910,55
670,73	3848,88
671,17	3813,62
671,62	3759,88
672,06	3722,08
672,51	3674,20
672,95	3645,70
673,40	3599,48
673,84	3558,02
674,29	3529,30
674,73	3497,75
675,18	3472,62
675,62	3436,18
676,07	3411,62
676,51	3393,92
676,95	3365,02
677,40	3346,70
677,84	3332,65
678,29	3309,65
678,73	3289,50
679,18	3280,58
679,62	3269,38
680,07	3244,10
680,51	3232,30
680,96	3216,45
681,40	3204,62
681,84	3198,45
682,29	3189,00
682,73	3181,22
683,18	3173,50
683,62	3173,38
684,07	3151,10
684,51	3147,65
684,95	3148,35
685,40	3134,68
685,84	3129,18
686,29	3127,02
686,73	3117,98
687,17	3113,12
687,62	3111,50
688,06	3108,80
688,51	3106,52
688,95	3104,85
689,39	3098,15
689,84	3100,10
690,28	3090,05
690,73	3088,10
691,17	3085,95
691,61	3081,35
692,06	3076,90
692,50	3078,65
692,94	3072,98
693,39	3073,00
693,83	3068,55
694,27	3077,28
694,72	3069,78
695,16	3062,40
695,60	3065,45
696,05	3061,22
696,49	3057,52
696,94	3061,68
697,38	3054,40
697,82	3056,62
698,27	3055,48
698,71	3056,58
699,15	3055,10
699,59	3056,08
700,04	3052,70
700,48	3066,02
700,92	3052,58
701,37	3049,60
701,81	3056,35
702,25	3047,55
702,70	3045,68
703,14	3046,95
703,58	3045,52
704,03	3049,18
704,47	3048,05
704,91	3042,48
705,35	3044,20
705,80	3047,50
706,24	3046,52
706,68	3056,75
707,13	3038,22
707,57	3045,98
708,01	3041,32
708,45	3041,05
708,90	3042,05
709,34	3040,20
709,78	3039,78
710,22	3043,98
710,67	3042,52
711,11	3044,72
711,55	3037,22
711,99	3040,80
712,44	3039,40
712,88	3039,22
713,32	3039,55
713,76	3041,32
714,21	3039,45
714,65	3036,88
715,09	3037,80
715,53	3037,65
715,97	3036,60
716,42	3040,42
716,86	3038,32
717,30	3038,62
717,74	3033,92
718,18	3042,60
718,63	3036,85
719,07	3037,00
719,51	3041,35
719,95	3038,65
720,39	3036,35
720,84	3037,85
721,28	3035,10
721,72	3034,68
722,16	3035,12
722,60	3032,72
723,04	3036,75
723,49	3041,75
723,93	3033,48
724,37	3032,72
724,81	3037,10
725,25	3033,45
725,69	3033,98
726,14	3036,85
726,58	3033,05
727,02	3037,70
727,46	3037,02
727,90	3032,95
728,34	3030,75
728,78	3036,92
729,23	3032,38
729,67	3036,48
730,11	3033,58
730,55	3034,80
730,99	3034,38
731,43	3034,50
731,87	3040,62
732,31	3032,10
732,76	3038,30
733,20	3035,68
733,64	3034,58
734,08	3039,25
734,52	3033,82
734,96	3037,68
735,40	3031,72
735,84	3036,25
736,28	3035,75
736,72	3034,08
737,16	3033,72
737,61	3032,68
738,05	3036,78
738,49	3036,22
738,93	3033,35
739,37	3036,15
739,81	3037,12
740,25	3035,02
740,69	3043,30
741,13	3032,18
741,57	3036,15
742,01	3037,12
742,45	3036,18
742,89	3033,42
743,33	3033,70
743,77	3034,00
744,21	3031,02
744,65	3036,20
745,09	3033,98
745,53	3032,15
745,98	3035,98
746,42	3035,45
746,86	3033,42
747,30	3032,60
747,74	3031,45
748,18	3030,25
748,62	3035,35
749,06	3037,00
749,50	3035,78
749,94	3033,78
750,38	3035,18
750,82	3038,35
751,26	3029,65
751,70	3031,62
752,14	3029,02
752,58	3034,82
753,02	3032,60
753,45	3031,18
753,89	3033,58
754,33	3040,48
754,77	3033,18
755,21	3034,02
755,65	3030,48
756,09	3032,42
756,53	3031,00
756,97	3030,72
757,41	3038,02
757,85	3030,22
758,29	3032,00
758,73	3030,98
759,17	3031,28
759,61	3029,75
760,05	3032,60
760,49	3033,52
760,93	3036,12
761,37	3032,08
761,80	3037,05
762,24	3032,30
762,68	3031,32
763,12	3033,00
763,56	3032,48
764,00	3030,60
764,44	3032,30
764,88	3034,58
765,32	3030,32
765,76	3034,70
766,20	3037,08
766,63	3031,92
767,07	3029,28
767,51	3029,45
767,95	3033,82
768,39	3032,80
768,83	3028,42
769,27	3031,82
769,71	3032,62
770,14	3029,00
770,58	3029,92
771,02	3029,82
771,46	3034,28
771,90	3031,82
772,34	3032,28
772,78	3034,25
773,21	3032,35
773,65	3037,60
774,09	3029,42
774,53	3032,12
774,97	3031,52
775,41	3028,38
775,84	3033,95
776,28	3030,50
776,72	3031,92
777,16	3028,05
777,60	3029,65
778,04	3028,78
778,47	3025,42
778,91	3029,88
779,35	3028,80
779,79	3031,60
780,23	3032,42
780,66	3029,55
781,10	3029,72
781,54	3030,82
781,98	3032,50
782,42	3033,48
782,85	3028,28
783,29	3032,55
783,73	3039,98
784,17	3033,05
784,61	3031,82
785,04	3032,72
785,48	3032,60
785,92	3030,30
786,36	3029,92
786,79	3027,98
787,23	3029,25
787,67	3032,48
788,11	3033,80
788,54	3031,88
788,98	3029,95
789,42	3030,78
789,86	3028,58
790,29	3033,58
790,73	3031,28
791,17	3034,35
791,60	3030,15
792,04	3029,05
792,48	3031,22
792,92	3028,65
793,35	3029,78
793,79	3029,35
794,23	3030,88
794,67	3029,38
795,10	3028,50
795,54	3031,62
795,98	3030,68
796,41	3030,38
796,85	3028,78
797,29	3044,48
797,72	3033,88
798,16	3029,60
798,60	3031,30
799,03	3031,00
799,47	3029,20
799,91	3033,92
800,34	3028,90
800,78	3030,62
801,22	3028,72
801,65	3027,90
802,09	3030,62
802,53	3034,58
802,96	3031,65
803,40	3027,85
803,84	3036,12
804,27	3030,20
804,71	3029,82
805,15	3030,25
805,58	3030,02
806,02	3026,70
806,46	3034,45
806,89	3035,75
807,33	3032,88
807,76	3031,92
808,20	3030,58
808,64	3030,92
809,07	3037,18
809,51	3035,58
809,95	3038,10
810,38	3033,18
810,82	3038,45
811,25	3028,98
811,69	3029,48
812,13	3027,85
812,56	3032,38
813,00	3029,40
813,43	3027,92
813,87	3026,35
814,30	3031,68
814,74	3035,42
815,18	3040,82
815,61	3028,95
816,05	3027,55
816,48	3032,45
816,92	3036,70
817,35	3030,55
817,79	3031,12
818,23	3032,50
818,66	3032,88
819,10	3029,95
819,53	3027,08
819,97	3030,12
820,40	3030,90
820,84	3032,42
821,27	3031,85
821,71	3031,88
822,14	3028,92
822,58	3032,05
823,01	3033,85
823,45	3030,70
823,88	3031,50
824,32	3028,35
824,75	3030,78
825,19	3026,98
825,63	3035,10
826,06	3027,80
826,50	3029,60
826,93	3031,20
827,37	3027,18
827,80	3031,70
828,23	3029,42
828,67	3031,15
829,10	3030,08
829,54	3027,90
829,97	3027,85
830,41	3026,02
830,84	3027,52
831,28	3030,30
831,71	3033,02
832,15	3028,42
832,58	3034,10
833,02	3028,68
833,45	3027,98
833,89	3033,30
834,32	3029,10
834,75	3036,18
835,19	3033,28
835,62	3029,95
836,06	3026,48
836,49	3027,02
836,93	3029,85
837,36	3032,08
837,79	3031,42
838,23	3029,05
838,66	3029,80
839,10	3032,80
839,53	3027,90
839,97	3030,25
840,40	3028,88
840,83	3031,10
841,27	3025,88
841,70	3029,38
842,14	3028,40
842,57	3029,45
843,00	3033,55
843,44	3036,85
843,87	3029,48
844,31	3033,15
844,74	3025,62
845,17	3026,12
845,61	3026,38
846,04	3028,65
846,47	3030,20
846,91	3029,02
847,34	3029,75
847,77	3028,40
848,21	3026,80
848,64	3031,10
849,08	3028,92
849,51	3031,85
849,94	3026,32
850,38	3027,18
850,81	3027,82
851,24	3028,52
851,68	3029,55
852,11	3026,22
852,54	3030,45
852,98	3033,75
853,41	3031,80
853,84	3028,32
854,28	3035,02
854,71	3026,22
855,14	3029,32
855,57	3030,72
856,01	3026,30
856,44	3029,32
856,87	3033,02
857,31	3023,65
857,74	3030,25
858,17	3024,50
858,61	3028,10
859,04	3030,88
859,47	3033,40
859,90	3028,45
860,34	3030,35
860,77	3027,92
861,20	3027,00
861,63	3032,75
862,07	3026,10
862,50	3026,92
862,93	3028,65
863,37	3028,92
863,80	3030,62
864,23	3030,50
864,66	3026,92
865,10	3029,42
865,53	3030,22
865,96	3027,30
866,39	3027,02
866,82	3032,10
867,26	3025,95
867,69	3030,20
868,12	3028,50
868,55	3025,45
868,99	3029,12
869,42	3027,55
869,85	3030,20
870,28	3025,88
870,71	3028,28
871,15	3030,35
871,58	3027,32
872,01	3029,28
872,44	3029,95
872,87	3031,40
873,31	3036,05
873,74	3028,32
874,17	3028,20
874,60	3030,80
875,03	3026,65
875,47	3029,02
875,90	3029,55
876,33	3027,12
876,76	3033,02
877,19	3029,68
877,62	3025,95
878,06	3027,25
878,49	3034,10
878,92	3026,25
879,35	3029,52
879,78	3026,85
880,21	3028,15
880,64	3029,62
881,08	3028,42
881,51	3028,85
881,94	3029,20
882,37	3034,72
882,80	3025,62
883,23	3026,48
883,66	3026,68
884,09	3028,18
884,53	3029,30
884,96	3029,38
885,39	3027,10
885,82	3028,15
886,25	3026,82
886,68	3025,40
887,11	3029,65
887,54	3029,42
887,97	3030,00
888,40	3029,32
888,84	3028,15
889,27	3027,48
889,70	3033,00
890,13	3025,40
890,56	3026,25
890,99	3028,32
891,42	3026,45
891,85	3038,30
892,28	3026,52
892,71	3030,32
893,14	3026,88
893,57	3030,40
894,00	3029,18
894,43	3024,05
894,86	3025,48
895,29	3027,58
895,73	3026,58
896,16	3028,12
896,59	3029,32
897,02	3025,92
897,45	3028,58
897,88	3026,70
898,31	3024,95
898,74	3028,25
899,17	3029,20
899,60	3026,28
900,03	3026,00
900,46	3024,55
900,89	3028,10
901,32	3030,48
901,75	3025,72
902,18	3024,88
902,61	3027,18
903,04	3029,90
903,47	3029,25
903,90	3025,95
904,33	3031,45
904,76	3033,10
905,19	3027,02
905,62	3026,25
906,05	3033,22
906,48	3025,42
906,91	3028,70
907,34	3025,65
907,76	3027,32
908,19	3024,48
908,62	3031,85
909,05	3026,38
909,48	3030,32
909,91	3027,85
910,34	3026,75
910,77	3026,20
911,20	3031,55
911,63	3026,90
912,06	3023,02
912,49	3030,60
912,92	3029,30
913,35	3027,22
913,78	3026,85
914,21	3027,35
914,63	3029,78
915,06	3027,02
915,49	3027,48
915,92	3028,58
916,35	3027,18
916,78	3022,40
917,21	3025,62
917,64	3027,22
918,07	3026,25
918,50	3029,80
918,92	3027,08
919,35	3030,65
919,78	3026,60
920,21	3029,88
920,64	3026,82
921,07	3027,32
921,50	3027,18
921,93	3028,78
922,35	3029,48
922,78	3027,48
923,21	3033,12
923,64	3028,70
924,07	3025,90
924,50	3026,25
924,92	3023,18
925,35	3027,58
925,78	3030,78
926,21	3027,82
926,64	3025,68
927,07	3030,38
927,49	3025,98
927,92	3029,50
928,35	3033,88
928,78	3026,55
929,21	3027,55
929,64	3023,20
930,06	3035,30
930,49	3027,15
930,92	3026,08
931,35	3029,00
931,78	3025,70
932,20	3028,85
932,63	3029,55
933,06	3026,32
933,49	3028,62
933,92	3023,68
934,34	3031,18
934,77	3029,45
935,20	3035,72
935,63	3026,30
936,05	3029,98
936,48	3027,75
936,91	3028,95
937,34	3028,65
937,76	3023,68
938,19	3027,28
938,62	3024,45
939,05	3028,05
939,47	3025,12
939,90	3029,28
940,33	3027,35
940,76	3026,02
941,18	3028,65
941,61	3024,28
942,04	3027,52
942,47	3028,62
942,89	3034,35
943,32	3024,75
943,75	3029,22
944,17	3025,30
944,60	3027,80
945,03	3028,65
945,46	3025,08
945,88	3022,12
946,31	3027,10
946,74	3026,18
947,16	3026,78
947,59	3027,18
948,02	3025,30
948,44	3028,42
948,87	3029,12
949,30	3025,45
949,72	3027,45
950,15	3027,78
950,58	3024,22
951,00	3024,80
951,43	3023,32
951,86	3035,45
952,28	3031,72
952,71	3025,30
953,14	3026,00
953,56	3028,15
953,99	3024,48
954,42	3028,15
954,84	3026,02
955,27	3031,52
955,70	3023,28
956,12	3027,18
956,55	3026,35
956,98	3025,98
957,40	3025,38
957,83	3029,65
958,25	3025,52
958,68	3027,78
959,11	3034,62
959,53	3025,42
959,96	3028,58
960,38	3028,20
960,81	3026,30
961,24	3024,60
961,66	3025,58
962,09	3021,55
962,51	3024,80
962,94	3029,65
963,37	3028,08
963,79	3029,60
964,22	3029,08
964,64	3027,62
965,07	3026,92
965,49	3027,22
965,92	3027,38
966,35	3025,82
966,77	3026,30
967,20	3029,18
967,62	3025,32
968,05	3026,42
968,47	3028,22
968,90	3025,08
969,32	3025,15
969,75	3029,45
970,17	3039,18
970,60	3029,22
971,03	3025,88
971,45	3026,90
971,88	3024,75
972,30	3024,45
972,73	3027,60
973,15	3026,15
973,58	3026,45
974,00	3024,55
974,43	3023,62
974,85	3025,02
975,28	3026,92
975,70	3025,95
976,13	3028,45
976,55	3026,70
976,98	3024,60
977,40	3024,92
977,83	3022,95
978,25	3025,78
978,68	3025,58
979,10	3028,35
979,53	3026,80
979,95	3025,32
980,37	3026,52
980,80	3024,95
981,22	3031,32
981,65	3028,62
982,07	3023,98
982,50	3028,72
982,92	3028,00
983,35	3026,38
983,77	3028,48
984,20	3025,35
984,62	3026,35
985,04	3025,62
985,47	3029,38
985,89	3029,78
986,32	3025,85
986,74	3022,82
987,17	3024,85
987,59	3026,75
988,01	3025,08
988,44	3024,40
988,86	3025,68
989,29	3026,42
989,71	3028,22
990,13	3025,60
990,56	3026,48
990,98	3026,52
991,41	3025,05
991,83	3026,58
992,25	3026,42
992,68	3026,18
993,10	3031,60
993,53	3025,82
993,95	3024,98
994,37	3026,15
994,80	3025,08
995,22	3024,82
995,64	3026,25
996,07	3029,22
996,49	3026,45
996,91	3026,40
997,34	3022,25
997,76	3025,75
998,18	3021,70
998,61	3028,22
999,03	3029,18
999,45	3025,68
999,88	3027,62
1000,30	3025,05
1000,72	3030,22
1001,15	3026,90
1001,57	3027,52
1001,99	3028,50
1002,42	3025,00
1002,84	3026,52
1003,26	3027,22
1003,69	3024,88
1004,11	3026,62
1004,53	3026,10
1004,96	3026,90
1005,38	3023,05
1005,80	3028,12
1006,22	3026,52
1006,65	3030,50
1007,07	3025,60
1007,49	3023,25
1007,92	3028,88
1008,34	3026,02
1008,76	3023,05
1009,18	3023,98
1009,61	3028,58
1010,03	3024,25
1010,45	3034,40
1010,87	3029,58
1011,30	3028,72
1011,72	3028,68
1012,14	3026,40
1012,56	3027,52
1012,99	3025,22
1013,41	3028,78
1013,83	3026,60
1014,25	3026,40
1014,68	3027,68
1015,10	3024,15
1015,52	3028,50
1015,94	3023,95
1016,37	3029,40
1016,79	3026,50
1017,21	3026,75
1017,63	3024,92
1018,05	3028,12
1018,48	3026,38
1018,90	3025,72
1019,32	3026,18
1019,74	3025,30
1020,16	3037,10
1020,59	3030,58
1021,01	3027,30
1021,43	3025,38
1021,85	3025,58
1022,27	3028,52
1022,69	3026,78
1023,12	3027,75
1023,54	3024,82
1023,96	3036,50
1024,38	3031,25
1024,80	3028,60
1025,22	3029,38
1025,65	3026,72
1026,07	3027,05
1026,49	3029,62
1026,91	3025,70
1027,33	3024,02
1027,75	3033,72
1028,17	3031,50
1028,60	3028,22
1029,02	3028,18
1029,44	3029,18
1029,86	3026,65
1030,28	3032,45
1030,70	3028,72
1031,12	3028,45
1031,54	3031,25
1031,97	3030,02
1032,39	3026,32
1032,81	3027,18
1033,23	3031,58
1033,65	3029,55
1034,07	3029,85
1034,49	3027,05
1034,91	3025,80
1035,33	3030,32
1035,75	3031,58
1036,18	3027,82
1036,60	3033,28
1037,02	3027,52
1037,44	3027,40
1037,86	3030,88
1038,28	3024,95
1038,70	3032,42
1039,12	3032,28
1039,54	3031,90
1039,96	3034,95
1040,38	3033,50
1040,80	3029,90
1041,22	3031,40
1041,64	3032,42
1042,06	3029,65
1042,48	3034,55
1042,90	3035,90
1043,32	3032,95
1043,74	3035,42
1044,17	3030,95
1044,59	3037,00
1045,01	3029,55
1045,43	3033,08
1045,85	3032,58
1046,27	3030,58
1046,69	3034,70
1047,11	3035,30
1047,53	3033,70
1047,95	3036,80
1048,37	3036,60
1048,79	3033,58
1049,21	3037,85
1049,63	3040,32
1050,05	3038,98
1050,47	3037,55
1050,89	3035,42
1051,31	3038,00
1051,72	3036,52
1052,14	3040,65
1052,56	3041,80
1052,98	3040,20
1053,40	3040,28
1053,82	3034,05
1054,24	3039,48
1054,66	3034,35
1055,08	3040,45
1055,50	3041,90
1055,92	3041,12
1056,34	3042,15
1056,76	3045,92
1057,18	3044,60
1057,60	3044,10
1058,02	3039,52
1058,44	3053,52
1058,86	3038,88
1059,28	3041,08
1059,69	3043,35
1060,11	3041,35
1060,53	3039,40
1060,95	3040,28
1061,37	3042,22
1061,79	3043,00
1062,21	3040,72
1062,63	3041,95
1063,05	3047,58
1063,47	3038,90
1063,88	3041,92
1064,30	3038,05
1064,72	3044,80
1065,14	3043,20
1065,56	3042,30
1065,98	3039,30
1066,40	3038,15
1066,82	3044,45
1067,23	3041,18
1067,65	3042,50
1068,07	3042,00
1068,49	3040,10
1068,91	3047,35
1069,33	3044,05
1069,75	3041,05
1070,16	3039,22
1070,58	3045,75
1071,00	3043,80
1071,42	3044,50
1071,84	3041,32
1072,26	3043,65
1072,67	3041,20
1073,09	3038,95
1073,51	3037,95
1073,93	3043,80
1074,35	3041,02
1074,77	3038,95
1075,18	3040,70
1075,60	3042,18
1076,02	3042,00
1076,44	3039,55
1076,86	3039,70
1077,27	3042,25
1077,69	3044,78
1078,11	3041,85
1078,53	3045,72
1078,94	3047,55
1079,36	3036,12
1079,78	3042,72
1080,20	3041,72
1080,62	3041,92
1081,03	3043,50
1081,45	3043,32
1081,87	3043,38
1082,29	3043,52
1082,70	3042,48
1083,12	3041,00
1083,54	3040,80
1083,96	3043,38
1084,37	3046,58
1084,79	3042,38
1085,21	3041,52
1085,63	3046,10
1086,04	3041,60
1086,46	3042,32
1086,88	3042,78
1087,30	3038,48
1087,71	3043,68
1088,13	3180,12
1088,55	3040,45
1088,96	3041,02
1089,38	3041,75
1089,80	3041,15
1090,22	3044,35
1090,63	3041,50
1091,05	3041,20
1091,47	3042,72
1091,88	3041,92
1092,30	3037,68
1092,72	3040,90
1093,13	3039,85
1093,55	3041,75
1093,97	3042,60
1094,38	3043,40
1094,80	3041,82
1095,22	3041,98
1095,63	3040,62
1096,05	3040,12
1096,47	3043,08
1096,88	3039,25
1097,30	3042,72
1097,72	3038,38
1098,13	3042,30
1098,55	3043,90
1098,97	3042,40
1099,38	3039,60
1099,80	3040,52
1100,21	3038,58
1100,63	3040,72
1101,05	3039,55
1101,46	3041,42
1101,88	3036,78
1102,30	3040,28
1102,71	3041,72
1103,13	3041,85
1103,54	3043,50
1103,96	3039,92
1104,38	3045,88
1104,79	3036,52
1105,21	3039,55
1105,62	3041,45
1106,04	3038,15
1106,46	3040,48
1106,87	3034,82
1107,29	3037,82
1107,70	3043,65
1108,12	3037,60
1108,54	3042,72
1108,95	3041,05
1109,37	3041,45
1109,78	3038,35
1110,20	3037,70
1110,61	3038,22
1111,03	3038,22
1111,44	3038,22
1111,86	3038,22
1112,28	3038,22
1112,69	3038,22
1113,11	3038,22
1113,52	3038,22
1113,94	3038,22
1114,35	3038,22
1114,77	3038,22
1115,18	3038,22
1115,60	3038,22
1116,01	3038,22
1116,43	3038,22
1116,84	3038,22
1117,26	3038,22
1117,67	3038,22
1118,09	3038,22
1118,50	3038,22
1118,92	3038,22
>>>>>End Processed Spectral Data<<<<<
