SpectraSuite Data File
++++++++++++++++++++++++++++++++++++
Date: Wed May 16 14:31:04 EEST 2012
User: OO Maya
Dark Spectrum Present: No
Reference Spectrum Present: No
Number of Sampled Component Spectra: 1
Spectrometers: MAYP11278
Integration Time (usec): 1000000 (MAYP11278)
Spectra Averaged: 4 (MAYP11278)
Boxcar Smoothing: 0 (MAYP11278)
Correct for Electrical Dark: No (MAYP11278)
Strobe/Lamp Enabled: No (MAYP11278)
Correct for Detector Non-linearity: No (MAYP11278)
Correct for Stray Light: No (MAYP11278)
Number of Pixels in Processed Spectrum: 2068
>>>>>Begin Processed Spectral Data<<<<<
188,05	2294,50
188,53	2213,50
189,01	2183,25
189,49	2181,00
189,96	3700,50
190,44	3785,25
190,92	3733,25
191,40	3785,75
191,88	3885,75
192,36	3795,25
192,83	3730,50
193,31	3670,75
193,79	3782,50
194,27	3732,25
194,75	3828,25
195,23	3741,75
195,70	3865,75
196,18	3734,50
196,66	3770,50
197,14	4053,50
197,62	3793,25
198,09	3687,25
198,57	3750,50
199,05	3714,75
199,53	3836,00
200,01	3853,50
200,48	3754,00
200,96	3763,00
201,44	3864,75
201,92	3856,75
202,39	3867,00
202,87	3688,75
203,35	3828,00
203,83	3728,75
204,31	3869,50
204,78	3925,50
205,26	3738,25
205,74	3742,25
206,22	3929,75
206,69	3754,50
207,17	3818,00
207,65	4077,00
208,13	3797,75
208,60	3836,25
209,08	3780,25
209,56	3913,50
210,04	3852,75
210,51	3791,75
210,99	3793,00
211,47	3864,75
211,94	3831,00
212,42	3738,25
212,90	4000,25
213,38	3888,25
213,85	3784,00
214,33	3993,00
214,81	3849,50
215,29	3975,00
215,76	3858,00
216,24	3869,25
216,72	3892,75
217,19	3909,50
217,67	3790,25
218,15	3772,25
218,62	3950,75
219,10	3682,50
219,58	3740,25
220,05	3782,75
220,53	3833,50
221,01	3954,25
221,49	3781,75
221,96	3907,50
222,44	3766,75
222,92	3919,50
223,39	3807,50
223,87	3914,50
224,35	3846,25
224,82	3804,25
225,30	3750,50
225,78	3804,25
226,25	3773,75
226,73	3828,00
227,21	3892,50
227,68	3818,75
228,16	3890,75
228,63	3892,50
229,11	3864,75
229,59	3808,75
230,06	3817,25
230,54	3777,50
231,02	3915,50
231,49	3943,50
231,97	3844,25
232,45	3862,00
232,92	3732,50
233,40	3842,50
233,87	3860,75
234,35	4168,50
234,83	3873,50
235,30	3769,50
235,78	3778,00
236,25	3717,50
236,73	3925,75
237,21	4063,25
237,68	3795,00
238,16	3848,50
238,63	3857,25
239,11	3827,50
239,59	3825,75
240,06	3725,00
240,54	3893,50
241,01	3978,50
241,49	3836,50
241,96	3820,25
242,44	3924,25
242,92	3955,25
243,39	3743,00
243,87	3770,50
244,34	3937,00
244,82	3989,25
245,29	3838,50
245,77	3986,50
246,24	3939,50
246,72	3774,75
247,20	3838,75
247,67	3826,50
248,15	3875,00
248,62	3906,00
249,10	3702,75
249,57	3872,50
250,05	3925,50
250,52	3881,25
251,00	3987,75
251,47	3860,75
251,95	4090,25
252,42	3979,75
252,90	3806,50
253,37	3965,25
253,85	3866,00
254,32	3829,00
254,80	3862,75
255,27	3875,50
255,75	3965,75
256,22	3774,50
256,70	3892,25
257,17	3903,75
257,65	3954,75
258,12	4174,50
258,60	3871,25
259,07	3810,25
259,55	3875,00
260,02	3921,25
260,50	4012,50
260,97	3834,00
261,45	3785,25
261,92	3964,75
262,40	3787,25
262,87	3852,50
263,35	3850,75
263,82	3747,00
264,30	3935,50
264,77	3977,50
265,25	3822,25
265,72	3881,50
266,19	3892,50
266,67	3943,25
267,14	3807,50
267,62	3834,25
268,09	3890,25
268,57	3874,50
269,04	3716,75
269,51	3789,50
269,99	3805,75
270,46	3908,00
270,94	3970,75
271,41	3823,50
271,89	3865,50
272,36	3734,75
272,83	3744,75
273,31	3674,50
273,78	3875,75
274,26	4222,75
274,73	3938,00
275,20	3911,50
275,68	3792,50
276,15	3839,50
276,63	3894,25
277,10	3935,00
277,57	3747,00
278,05	3828,50
278,52	3751,50
279,00	4257,00
279,47	3794,50
279,94	3813,25
280,42	4270,00
280,89	3957,50
281,36	4206,75
281,84	3808,25
282,31	3990,50
282,78	3836,75
283,26	3831,25
283,73	3902,75
284,21	3777,50
284,68	3761,75
285,15	3928,50
285,63	3824,75
286,10	3876,25
286,57	3907,00
287,05	3744,00
287,52	3898,00
287,99	4016,50
288,47	3825,25
288,94	3936,00
289,41	3687,75
289,89	4022,75
290,36	3782,50
290,83	3874,00
291,30	3826,50
291,78	3947,50
292,25	4091,50
292,72	3804,25
293,20	3980,50
293,67	3795,75
294,14	3927,75
294,62	3904,75
295,09	3805,25
295,56	3869,75
296,03	3889,75
296,51	4043,25
296,98	4021,00
297,45	3919,50
297,93	3899,00
298,40	3924,25
298,87	3803,50
299,34	4021,50
299,82	3804,00
300,29	3921,25
300,76	3807,75
301,23	3948,25
301,71	3937,25
302,18	3948,00
302,65	3787,25
303,12	3934,00
303,60	3979,50
304,07	3795,75
304,54	3819,75
305,01	3783,50
305,49	3877,00
305,96	3899,25
306,43	3909,00
306,90	3941,00
307,38	3813,75
307,85	3829,50
308,32	3889,50
308,79	3828,25
309,27	3950,50
309,74	3970,25
310,21	3914,50
310,68	3876,25
311,15	3921,50
311,63	3817,50
312,10	3949,25
312,57	3855,75
313,04	4068,00
313,51	3811,25
313,99	3851,25
314,46	3884,00
314,93	3803,25
315,40	3806,00
315,87	3965,50
316,34	3926,75
316,82	3902,75
317,29	3924,75
317,76	3905,25
318,23	4183,00
318,70	3850,25
319,17	3870,75
319,65	3739,00
320,12	3921,00
320,59	4056,25
321,06	3939,75
321,53	3833,00
322,00	3718,00
322,48	3761,50
322,95	4064,25
323,42	3810,00
323,89	4141,50
324,36	3740,00
324,83	3883,75
325,30	3851,00
325,78	3809,50
326,25	3834,75
326,72	3836,50
327,19	3929,00
327,66	3914,75
328,13	3941,25
328,60	3882,75
329,07	3843,00
329,54	3856,00
330,02	3816,25
330,49	3800,25
330,96	3930,00
331,43	3914,00
331,90	4078,00
332,37	3800,00
332,84	4080,25
333,31	3944,25
333,78	3907,75
334,25	3994,00
334,72	3899,25
335,20	3950,00
335,67	4285,50
336,14	3769,75
336,61	3850,00
337,08	3841,75
337,55	3888,00
338,02	3823,75
338,49	3838,25
338,96	4036,25
339,43	3965,50
339,90	3773,50
340,37	3796,50
340,84	3769,50
341,31	3929,25
341,78	3992,75
342,25	3837,50
342,72	3896,75
343,19	3952,50
343,67	3895,50
344,14	3831,75
344,61	3851,50
345,08	3793,25
345,55	3886,75
346,02	3929,50
346,49	3845,75
346,96	3786,50
347,43	4044,75
347,90	3811,25
348,37	3993,50
348,84	3906,75
349,31	3739,75
349,78	3888,75
350,25	3948,75
350,72	3890,25
351,19	3784,75
351,66	3906,50
352,13	4061,50
352,60	3914,00
353,07	3838,00
353,54	3881,00
354,01	3922,25
354,48	3923,00
354,94	3934,75
355,41	3902,25
355,88	4038,00
356,35	3810,50
356,82	4036,25
357,29	3800,00
357,76	4129,75
358,23	3954,25
358,70	3734,50
359,17	3804,50
359,64	3804,25
360,11	3825,00
360,58	3980,50
361,05	4024,25
361,52	3853,00
361,99	3863,25
362,46	3887,75
362,93	3867,50
363,39	3886,75
363,86	4125,50
364,33	3922,00
364,80	3787,50
365,27	3937,25
365,74	3818,50
366,21	3761,25
366,68	3896,25
367,15	3857,00
367,62	3875,50
368,09	3732,25
368,55	3774,50
369,02	3958,75
369,49	3771,75
369,96	3972,00
370,43	3903,25
370,90	3830,25
371,37	3825,75
371,84	3905,50
372,31	3805,75
372,77	3737,25
373,24	3846,50
373,71	3908,25
374,18	3740,50
374,65	3791,25
375,12	3893,50
375,59	3737,00
376,05	3979,50
376,52	3845,75
376,99	3772,50
377,46	3746,75
377,93	3876,75
378,40	3879,25
378,86	3880,00
379,33	3864,75
379,80	3860,00
380,27	3936,25
380,74	4040,00
381,21	3888,00
381,67	4014,25
382,14	4004,25
382,61	3743,50
383,08	3915,50
383,55	3838,00
384,02	3984,50
384,48	3873,75
384,95	4411,25
385,42	3884,00
385,89	3834,00
386,36	3834,50
386,82	4016,25
387,29	3791,50
387,76	3758,75
388,23	3953,75
388,69	3914,75
389,16	3996,00
389,63	3819,25
390,10	3915,75
390,57	3894,25
391,03	3930,00
391,50	3924,00
391,97	3877,75
392,44	3910,75
392,90	3838,50
393,37	3852,25
393,84	4137,25
394,31	3876,50
394,77	3990,25
395,24	3765,00
395,71	3941,00
396,18	4407,50
396,64	3735,00
397,11	3924,25
397,58	3967,50
398,05	3788,25
398,51	3859,50
398,98	3843,25
399,45	3786,50
399,92	3985,75
400,38	3749,50
400,85	3862,50
401,32	3829,25
401,78	3925,50
402,25	3897,25
402,72	3876,25
403,18	3794,75
403,65	4019,00
404,12	3880,75
404,59	4010,25
405,05	4068,00
405,52	3978,25
405,99	3788,50
406,45	3983,50
406,92	3917,25
407,39	4057,50
407,85	3877,25
408,32	3890,25
408,79	3933,50
409,25	3744,25
409,72	4003,50
410,19	3775,00
410,65	4006,00
411,12	3801,50
411,59	4012,75
412,05	3800,25
412,52	3715,50
412,99	3936,50
413,45	3837,00
413,92	3930,25
414,39	3936,75
414,85	4076,75
415,32	3850,00
415,78	4038,75
416,25	3921,00
416,72	3848,25
417,18	4081,00
417,65	3902,50
418,12	3875,50
418,58	3915,25
419,05	3899,75
419,51	3959,25
419,98	3797,75
420,45	3952,50
420,91	3778,75
421,38	3865,75
421,84	3818,00
422,31	3907,50
422,78	3813,00
423,24	3849,75
423,71	3916,25
424,17	3972,50
424,64	3843,25
425,11	3944,25
425,57	3886,50
426,04	4023,00
426,50	3841,75
426,97	4004,00
427,43	3948,00
427,90	3952,25
428,37	3778,50
428,83	3971,50
429,30	3922,25
429,76	3870,25
430,23	3901,50
430,69	4222,50
431,16	3778,75
431,62	3856,75
432,09	4041,50
432,55	3999,75
433,02	3845,50
433,48	3812,75
433,95	3880,00
434,42	3844,00
434,88	3948,75
435,35	3785,00
435,81	3978,50
436,28	3869,00
436,74	3764,75
437,21	3955,25
437,67	3904,50
438,14	3905,75
438,60	3806,00
439,07	3835,75
439,53	4321,50
440,00	3921,75
440,46	3965,75
440,93	4003,50
441,39	3784,75
441,86	3858,00
442,32	4160,00
442,79	3801,50
443,25	3883,25
443,72	3874,00
444,18	3761,75
444,64	4058,50
445,11	3912,75
445,57	3893,75
446,04	3875,50
446,50	3910,50
446,97	3850,50
447,43	3887,75
447,90	3836,50
448,36	3814,50
448,83	3937,25
449,29	3896,50
449,75	3872,50
450,22	3796,00
450,68	3783,00
451,15	3836,50
451,61	3911,75
452,08	3977,50
452,54	3791,75
453,00	3960,00
453,47	3863,50
453,93	3831,75
454,40	3875,00
454,86	3929,75
455,32	3814,25
455,79	3885,25
456,25	3969,25
456,72	3821,00
457,18	3975,50
457,64	3844,00
458,11	3832,00
458,57	3765,50
459,04	3876,75
459,50	3847,00
459,96	3894,00
460,43	3823,50
460,89	3790,00
461,36	4015,50
461,82	3956,25
462,28	3802,50
462,75	3757,75
463,21	3981,25
463,67	3832,25
464,14	3877,75
464,60	3878,25
465,06	3761,75
465,53	3829,25
465,99	3959,00
466,45	3859,00
466,92	3883,25
467,38	3946,00
467,84	3852,25
468,31	3887,50
468,77	3904,25
469,23	3835,50
469,70	3809,25
470,16	3901,75
470,62	3874,25
471,09	3825,25
471,55	3840,00
472,01	3779,25
472,48	3809,50
472,94	3835,75
473,40	3997,25
473,87	3841,25
474,33	3796,25
474,79	3835,75
475,25	3741,25
475,72	3911,00
476,18	3850,50
476,64	3900,00
477,11	3833,00
477,57	3854,50
478,03	4018,75
478,49	3873,25
478,96	3971,00
479,42	3780,50
479,88	4014,25
480,35	3905,25
480,81	3866,25
481,27	3812,25
481,73	3849,50
482,20	3849,00
482,66	3761,75
483,12	3829,50
483,58	3725,00
484,05	3805,00
484,51	4023,00
484,97	3888,75
485,43	3816,50
485,89	3693,25
486,36	3835,50
486,82	3702,75
487,28	3884,25
487,74	3758,75
488,21	3724,00
488,67	3807,25
489,13	3869,00
489,59	3828,50
490,05	3949,00
490,52	3733,00
490,98	3864,75
491,44	3736,50
491,90	3780,25
492,36	3700,75
492,83	3958,25
493,29	3864,75
493,75	3853,50
494,21	3775,00
494,67	3788,50
495,14	3805,25
495,60	3767,75
496,06	3904,75
496,52	3781,25
496,98	3802,75
497,44	4023,75
497,91	3960,00
498,37	3802,75
498,83	3849,00
499,29	3795,50
499,75	4114,25
500,21	3836,25
500,67	3776,25
501,14	3828,75
501,60	3786,75
502,06	3900,00
502,52	3823,00
502,98	3836,25
503,44	3825,50
503,90	3890,25
504,37	3773,00
504,83	3848,25
505,29	3849,75
505,75	3778,25
506,21	3830,50
506,67	3896,50
507,13	3837,50
507,59	3927,25
508,05	3868,00
508,51	3788,75
508,98	3782,00
509,44	3696,50
509,90	3799,00
510,36	3819,50
510,82	3768,50
511,28	3972,50
511,74	3961,50
512,20	3738,75
512,66	3701,25
513,12	3742,25
513,58	3884,25
514,04	3656,50
514,51	3944,00
514,97	4008,50
515,43	3705,25
515,89	3840,25
516,35	3934,25
516,81	3917,25
517,27	4133,50
517,73	3895,75
518,19	3856,50
518,65	4247,50
519,11	3827,75
519,57	3760,00
520,03	3711,00
520,49	3742,75
520,95	3877,50
521,41	3901,50
521,87	3899,50
522,33	3807,25
522,79	3732,00
523,25	4021,25
523,71	3920,00
524,17	3790,25
524,63	4002,50
525,09	3878,50
525,55	3894,25
526,01	3977,25
526,47	3876,25
526,93	3848,25
527,39	3793,75
527,85	3816,50
528,31	3898,00
528,77	3886,25
529,23	3806,50
529,69	3735,75
530,15	3903,25
530,61	3920,50
531,07	3715,50
531,53	3953,75
531,99	3857,75
532,45	3832,00
532,91	3836,50
533,37	3874,75
533,83	3791,25
534,29	3717,25
534,75	3819,25
535,21	3787,75
535,67	3851,00
536,12	3782,75
536,58	3891,75
537,04	3734,50
537,50	3911,25
537,96	3817,75
538,42	3832,75
538,88	4001,50
539,34	3899,00
539,80	4442,25
540,26	3706,50
540,72	4004,00
541,18	3850,25
541,63	3746,50
542,09	3871,50
542,55	3866,25
543,01	3787,75
543,47	4161,00
543,93	3728,25
544,39	4070,50
544,85	3930,75
545,31	3815,00
545,76	3796,25
546,22	3941,75
546,68	3843,00
547,14	3874,25
547,60	3907,50
548,06	3851,50
548,52	3804,50
548,98	3793,50
549,43	3760,75
549,89	4079,75
550,35	3814,75
550,81	3722,00
551,27	3891,25
551,73	3853,25
552,19	4045,00
552,64	3876,25
553,10	3740,25
553,56	3908,25
554,02	3801,25
554,48	3728,75
554,93	3864,25
555,39	3846,25
555,85	4026,00
556,31	3845,50
556,77	3986,50
557,23	3687,75
557,68	3868,25
558,14	4080,50
558,60	3799,75
559,06	3819,50
559,52	3774,50
559,97	3744,25
560,43	3745,25
560,89	3852,75
561,35	3817,50
561,81	3857,00
562,26	3805,00
562,72	3761,75
563,18	3827,00
563,64	3988,00
564,09	3753,75
564,55	3843,50
565,01	3811,50
565,47	3770,00
565,92	3870,75
566,38	3966,75
566,84	3825,75
567,30	3766,50
567,75	3850,25
568,21	3947,00
568,67	3786,25
569,13	3837,25
569,58	3927,75
570,04	3849,75
570,50	3818,25
570,96	3909,00
571,41	3883,25
571,87	3842,50
572,33	3857,00
572,78	3864,75
573,24	3774,00
573,70	3763,25
574,16	3848,50
574,61	3996,25
575,07	3914,00
575,53	3705,50
575,98	3833,25
576,44	3670,25
576,90	3961,50
577,36	3811,25
577,81	3770,75
578,27	3746,75
578,73	4006,50
579,18	3835,25
579,64	3804,75
580,10	3867,75
580,55	3849,25
581,01	3827,00
581,47	3838,50
581,92	3841,00
582,38	3808,75
582,84	3737,75
583,29	3847,50
583,75	3886,25
584,21	3802,25
584,66	3920,25
585,12	3776,00
585,57	4134,00
586,03	3791,75
586,49	3817,75
586,94	3792,00
587,40	3858,75
587,86	3957,75
588,31	3722,50
588,77	3889,00
589,22	3828,25
589,68	3758,75
590,14	3876,25
590,59	3919,25
591,05	3816,75
591,51	3680,50
591,96	3976,75
592,42	3786,75
592,87	3859,75
593,33	3851,00
593,78	3907,50
594,24	3839,00
594,70	3821,25
595,15	3999,75
595,61	3797,25
596,06	3746,75
596,52	3992,50
596,98	3915,50
597,43	3954,75
597,89	3878,00
598,34	3721,50
598,80	3830,00
599,25	3977,50
599,71	3748,50
600,16	3871,50
600,62	3974,00
601,08	3908,50
601,53	3944,75
601,99	3716,00
602,44	4167,75
602,90	3775,75
603,35	3843,25
603,81	3705,25
604,26	3693,25
604,72	3895,00
605,17	3827,00
605,63	3907,50
606,08	3846,25
606,54	3689,00
606,99	3857,25
607,45	3810,75
607,90	3823,75
608,36	3897,25
608,81	3845,25
609,27	4093,00
609,72	3923,25
610,18	3833,75
610,63	3777,00
611,09	3855,75
611,54	3732,25
612,00	4037,25
612,45	3900,50
612,91	3859,25
613,36	4209,50
613,82	3714,50
614,27	3712,00
614,73	3723,75
615,18	3722,00
615,64	3817,50
616,09	3823,25
616,54	3725,25
617,00	3809,25
617,45	3832,00
617,91	3931,50
618,36	3763,75
618,82	3809,00
619,27	3790,25
619,72	3928,75
620,18	3795,75
620,63	3915,50
621,09	3936,50
621,54	3830,25
622,00	3939,75
622,45	3985,50
622,90	3923,50
623,36	3803,50
623,81	3770,00
624,27	3965,75
624,72	3715,50
625,17	3820,75
625,63	3853,00
626,08	3797,75
626,54	3820,50
626,99	3857,25
627,44	3761,75
627,90	3896,50
628,35	3910,25
628,81	3688,00
629,26	3806,25
629,71	3860,25
630,17	3770,00
630,62	3875,00
631,07	3837,75
631,53	3921,25
631,98	3878,50
632,43	3948,75
632,89	3793,00
633,34	3775,50
633,79	3750,00
634,25	3767,25
634,70	3724,75
635,15	3788,25
635,61	3753,25
636,06	3698,00
636,51	3830,50
636,97	3825,50
637,42	3757,25
637,87	3901,00
638,33	3923,25
638,78	3783,75
639,23	3826,75
639,69	3723,00
640,14	3681,00
640,59	3858,50
641,05	3925,25
641,50	3698,75
641,95	3815,50
642,40	3777,00
642,86	3684,00
643,31	3766,00
643,76	3894,00
644,22	3768,75
644,67	3736,50
645,12	3799,50
645,57	3732,00
646,03	3843,00
646,48	3845,25
646,93	3839,75
647,38	3898,25
647,84	3846,75
648,29	3854,00
648,74	3711,25
649,19	3957,25
649,65	3881,75
650,10	4282,50
650,55	3744,50
651,00	3734,50
651,46	3763,00
651,91	3842,00
652,36	3742,75
652,81	3813,75
653,27	3777,00
653,72	3753,50
654,17	3826,75
654,62	3846,75
655,07	3776,00
655,53	3736,25
655,98	3913,75
656,43	3736,00
656,88	3833,25
657,33	3864,50
657,79	3889,00
658,24	3742,50
658,69	3841,75
659,14	3732,00
659,59	4325,00
660,05	3756,25
660,50	3943,00
660,95	3814,50
661,40	3735,75
661,85	3795,00
662,30	3741,50
662,76	3693,50
663,21	3853,00
663,66	3785,50
664,11	3757,00
664,56	3819,50
665,01	3693,00
665,47	3835,00
665,92	3744,25
666,37	3843,50
666,82	3833,50
667,27	4111,25
667,72	3956,75
668,17	3737,00
668,62	3847,25
669,08	3725,00
669,53	4059,75
669,98	3680,75
670,43	3700,50
670,88	3928,25
671,33	3838,75
671,78	4017,50
672,23	4085,25
672,69	3776,50
673,14	3813,75
673,59	3945,00
674,04	4192,75
674,49	3857,00
674,94	3866,00
675,39	3680,00
675,84	3707,75
676,29	3833,50
676,74	3770,50
677,19	3784,00
677,64	3772,00
678,10	4119,00
678,55	3753,25
679,00	3771,75
679,45	3821,75
679,90	3766,25
680,35	3813,00
680,80	3796,00
681,25	3635,75
681,70	3632,00
682,15	3777,00
682,60	3834,00
683,05	3871,25
683,50	3874,75
683,95	3851,50
684,40	3965,00
684,85	3881,25
685,30	3820,25
685,75	3860,75
686,20	3801,25
686,65	3731,50
687,10	3825,50
687,55	3766,75
688,00	3809,50
688,45	3787,25
688,90	4145,50
689,35	3874,50
689,80	3664,00
690,25	3804,50
690,70	3798,50
691,15	3686,50
691,60	3794,00
692,05	3691,75
692,50	3808,50
692,95	3799,25
693,40	3890,50
693,85	3870,00
694,30	3815,00
694,75	3812,75
695,20	4346,25
695,65	3813,25
696,10	3840,00
696,55	4046,75
697,00	3800,25
697,45	3761,50
697,90	3862,75
698,35	3723,00
698,80	3900,25
699,24	3888,75
699,69	3764,00
700,14	3762,75
700,59	3870,25
701,04	3894,75
701,49	4254,75
701,94	3726,00
702,39	3984,75
702,84	3769,50
703,29	3770,25
703,74	3865,75
704,19	3790,75
704,63	3774,75
705,08	3949,00
705,53	3932,50
705,98	3909,00
706,43	3725,50
706,88	3904,00
707,33	3820,50
707,78	3784,75
708,22	3854,00
708,67	3909,75
709,12	3844,75
709,57	3782,75
710,02	3813,50
710,47	3823,00
710,92	3762,00
711,37	3887,75
711,81	3830,50
712,26	3822,75
712,71	3720,25
713,16	4048,75
713,61	3795,50
714,06	3833,75
714,50	3977,25
714,95	3908,00
715,40	3782,50
715,85	3800,00
716,30	3754,50
716,75	3793,75
717,19	3708,25
717,64	3682,25
718,09	3881,25
718,54	4034,00
718,99	3717,00
719,43	3693,25
719,88	3813,75
720,33	3796,25
720,78	3789,75
721,23	3850,50
721,67	3768,25
722,12	3874,75
722,57	3814,50
723,02	3707,50
723,47	3670,25
723,91	3825,50
724,36	3648,50
724,81	3872,75
725,26	3693,00
725,70	3783,00
726,15	3790,25
726,60	3794,25
727,05	4039,50
727,49	3730,50
727,94	3965,50
728,39	3860,00
728,84	3783,00
729,28	3942,75
729,73	3759,25
730,18	3920,75
730,63	3694,00
731,07	3810,00
731,52	3882,75
731,97	3848,50
732,41	3821,75
732,86	3740,00
733,31	3887,50
733,76	3843,75
734,20	3732,75
734,65	3884,00
735,10	3901,50
735,54	3798,00
735,99	4155,00
736,44	3723,25
736,89	3839,75
737,33	3891,00
737,78	3901,75
738,23	3817,75
738,67	3789,75
739,12	3802,25
739,57	3691,25
740,01	3935,50
740,46	3823,75
740,91	3719,25
741,35	3848,75
741,80	3881,75
742,25	3805,25
742,69	3844,75
743,14	3724,25
743,59	3737,25
744,03	3814,50
744,48	3944,75
744,92	3924,00
745,37	3830,00
745,82	3894,75
746,26	4004,50
746,71	3637,75
747,16	3720,00
747,60	3706,25
748,05	3874,00
748,49	3798,50
748,94	3751,25
749,39	3843,00
749,83	4141,50
750,28	3805,75
750,73	3800,00
751,17	3697,00
751,62	3775,25
752,06	3757,50
752,51	3811,00
752,95	4031,75
753,40	3747,00
753,85	3793,00
754,29	3701,75
754,74	3775,75
755,18	3744,25
755,63	3784,50
756,07	3822,00
756,52	3952,00
756,97	3787,00
757,41	3946,50
757,86	3809,25
758,30	3770,50
758,75	3795,50
759,19	3770,25
759,64	3700,50
760,08	3803,75
760,53	3860,75
760,98	3801,50
761,42	3891,25
761,87	3968,75
762,31	3788,75
762,76	3701,25
763,20	3779,00
763,65	3881,00
764,09	3805,25
764,54	3682,50
764,98	3778,50
765,43	3850,00
765,87	3745,25
766,32	3713,50
766,76	3760,00
767,21	3815,00
767,65	3814,75
768,10	3827,25
768,54	3891,50
768,99	3807,75
769,43	4027,50
769,88	3716,00
770,32	3786,00
770,77	3738,25
771,21	3689,75
771,65	3872,50
772,10	3832,00
772,54	3845,25
772,99	3706,75
773,43	3763,75
773,88	3787,75
774,32	3631,50
774,77	3765,00
775,21	3736,75
775,65	3824,75
776,10	3812,50
776,54	3715,75
776,99	3778,50
777,43	3756,50
777,88	3861,75
778,32	3864,50
778,76	3755,50
779,21	3842,25
779,65	4151,00
780,10	4002,75
780,54	3840,75
780,99	3930,00
781,43	3855,75
781,87	3752,75
782,32	3851,50
782,76	3718,25
783,20	3777,75
783,65	3876,00
784,09	3919,75
784,54	3807,50
784,98	3751,50
785,42	3775,00
785,87	3737,75
786,31	3914,00
786,75	3891,25
787,20	3924,25
787,64	3688,25
788,09	3739,50
788,53	3833,25
788,97	3723,25
789,42	3790,25
789,86	3764,00
790,30	3799,00
790,75	3699,00
791,19	3749,00
791,63	3926,00
792,08	3768,50
792,52	3835,50
792,96	3746,75
793,41	4304,50
793,85	3912,25
794,29	3824,25
794,74	3830,75
795,18	3827,50
795,62	3713,25
796,06	3879,75
796,51	3792,50
796,95	3834,25
797,39	3754,00
797,84	3732,75
798,28	3811,75
798,72	3927,25
799,16	3837,75
799,61	3732,00
800,05	3974,25
800,49	3835,50
800,94	3737,75
801,38	3833,25
801,82	3821,50
802,26	3744,75
802,71	3932,75
803,15	3996,00
803,59	3891,25
804,03	3841,50
804,48	3799,75
804,92	3762,50
805,36	4018,25
805,80	4041,50
806,25	4029,00
806,69	3900,00
807,13	4027,75
807,57	3790,50
808,01	3811,00
808,46	3729,75
808,90	3865,00
809,34	3834,75
809,78	3797,25
810,23	3742,50
810,67	3872,75
811,11	3983,25
811,55	4217,75
811,99	3769,75
812,44	3752,00
812,88	3870,25
813,32	4028,75
813,76	3902,25
814,20	3799,25
814,64	3903,50
815,09	3886,50
815,53	3823,25
815,97	3783,25
816,41	3738,50
816,85	3761,25
817,29	3882,25
817,74	3803,50
818,18	3935,25
818,62	3781,25
819,06	3874,50
819,50	3961,00
819,94	3793,75
820,39	3873,75
820,83	3765,25
821,27	3825,75
821,71	3736,50
822,15	4010,00
822,59	3736,00
823,03	3817,25
823,47	3862,50
823,92	3747,25
824,36	3823,00
824,80	3789,75
825,24	3840,50
825,68	3871,75
826,12	3726,00
826,56	3798,50
827,00	3657,75
827,44	3790,50
827,88	3875,25
828,33	3950,00
828,77	3755,50
829,21	3921,00
829,65	3854,75
830,09	3761,00
830,53	4003,25
830,97	3769,00
831,41	4101,25
831,85	3939,00
832,29	3873,25
832,73	3712,00
833,17	3835,75
833,61	3784,00
834,05	3905,00
834,49	3896,25
834,93	3810,25
835,37	3741,00
835,82	3924,00
836,26	3796,50
836,70	3824,75
837,14	3776,25
837,58	3935,50
838,02	3756,75
838,46	3768,75
838,90	3847,75
839,34	3808,25
839,78	4003,25
840,22	4093,50
840,66	3826,75
841,10	3954,25
841,54	3649,25
841,98	3759,75
842,42	3714,75
842,86	3785,50
843,30	3900,25
843,74	3827,00
844,18	3891,75
844,62	3848,50
845,06	3744,75
845,50	3879,25
845,94	3802,25
846,37	3892,00
846,81	3765,75
847,25	3751,75
847,69	3815,75
848,13	3747,00
848,57	3773,25
849,01	3793,75
849,45	3875,75
849,89	3944,00
850,33	3888,25
850,77	3807,25
851,21	3930,25
851,65	3729,25
852,09	3848,00
852,53	3930,25
852,97	3759,75
853,40	3771,50
853,84	3883,75
854,28	3700,00
854,72	3900,25
855,16	3682,50
855,60	3740,50
856,04	3925,25
856,48	3980,50
856,92	3822,25
857,36	3881,00
857,79	3819,00
858,23	3707,75
858,67	3952,00
859,11	3664,00
859,55	3728,00
859,99	3757,25
860,43	3790,75
860,87	3827,25
861,30	3888,50
861,74	3766,50
862,18	3764,00
862,62	3869,00
863,06	3748,50
863,50	3773,50
863,94	3905,25
864,37	3720,75
864,81	3814,25
865,25	3803,00
865,69	3690,75
866,13	3799,75
866,57	3667,00
867,00	3870,00
867,44	3699,75
867,88	3876,25
868,32	3795,75
868,76	3752,25
869,19	3848,00
869,63	3817,75
870,07	3985,50
870,51	4109,00
870,95	3694,75
871,38	3787,50
871,82	3814,75
872,26	3763,00
872,70	3821,50
873,14	3859,75
873,57	3788,50
874,01	3918,00
874,45	3912,50
874,89	3777,25
875,32	3707,25
875,76	3931,50
876,20	3654,75
876,64	3844,00
877,07	3793,25
877,51	3792,25
877,95	3821,50
878,39	3785,75
878,82	3857,50
879,26	3801,50
879,70	3988,75
880,14	3749,50
880,57	3718,75
881,01	3770,75
881,45	3825,75
881,89	3890,00
882,32	3775,25
882,76	3791,25
883,20	3789,00
883,63	3787,25
884,07	3692,75
884,51	3888,00
884,94	3812,50
885,38	3872,75
885,82	3895,50
886,26	3774,50
886,69	3746,75
887,13	3990,75
887,57	3707,75
888,00	3727,75
888,44	3806,00
888,88	3764,25
889,31	4191,75
889,75	3716,00
890,19	3929,50
890,62	3754,00
891,06	3867,50
891,50	3842,00
891,93	3663,25
892,37	3729,50
892,81	3781,75
893,24	3693,50
893,68	3769,50
894,11	3839,50
894,55	3764,75
894,99	3879,25
895,42	3766,25
895,86	3745,75
896,30	3822,50
896,73	3876,25
897,17	3760,75
897,60	3716,25
898,04	3752,25
898,48	3803,50
898,91	3931,50
899,35	3740,50
899,78	3729,50
900,22	3748,25
900,66	3881,00
901,09	3861,00
901,53	3750,00
901,96	4036,50
902,40	4020,00
902,84	3723,00
903,27	3774,00
903,71	3983,25
904,14	3749,00
904,58	3841,25
905,01	3765,50
905,45	3767,75
905,88	3712,25
906,32	3947,50
906,76	3802,50
907,19	3909,25
907,63	3839,25
908,06	3778,25
908,50	3867,50
908,93	3972,75
909,37	3793,50
909,80	3682,00
910,24	3829,75
910,67	3809,25
911,11	3794,25
911,54	3765,25
911,98	3788,25
912,41	3819,00
912,85	3779,25
913,28	3884,50
913,72	3857,50
914,15	3794,50
914,59	3682,75
915,02	3707,25
915,46	3762,25
915,89	3736,25
916,33	3883,50
916,76	3739,75
917,20	3951,50
917,63	3751,75
918,07	3913,50
918,50	3732,25
918,94	3797,75
919,37	3787,75
919,81	3860,50
920,24	3896,50
920,67	3815,00
921,11	4016,50
921,54	3856,25
921,98	3746,25
922,41	3722,25
922,85	3697,50
923,28	3831,25
923,72	3990,75
924,15	3870,75
924,58	3651,50
925,02	3885,50
925,45	3738,25
925,89	3872,50
926,32	4072,00
926,75	3776,75
927,19	3866,00
927,62	3692,00
928,06	4052,25
928,49	3797,25
928,92	3704,50
929,36	3932,50
929,79	3776,75
930,23	3845,75
930,66	3900,75
931,09	3742,50
931,53	3845,75
931,96	3683,50
932,39	4016,25
932,83	3931,25
933,26	4107,25
933,70	3794,25
934,13	3916,50
934,56	3907,25
935,00	3901,75
935,43	3836,00
935,86	3716,25
936,30	3794,50
936,73	3726,50
937,16	3833,00
937,60	3732,00
938,03	3889,75
938,46	3737,00
938,90	3762,00
939,33	3903,50
939,76	3709,00
940,19	3820,75
940,63	3908,25
941,06	4055,00
941,49	3752,00
941,93	3917,25
942,36	3745,25
942,79	3782,50
943,23	3886,25
943,66	3705,25
944,09	3677,50
944,52	3875,25
944,96	3770,25
945,39	3881,00
945,82	3802,75
946,26	3817,50
946,69	3839,75
947,12	3946,00
947,55	3769,75
947,99	3829,25
948,42	3882,75
948,85	3695,00
949,28	3704,50
949,72	3694,00
950,15	4096,75
950,58	3956,50
951,01	3781,25
951,45	3753,00
951,88	3848,25
952,31	3691,25
952,74	3915,00
953,17	3759,25
953,61	4029,25
954,04	3686,50
954,47	3730,25
954,90	3787,75
955,33	3727,50
955,77	3783,00
956,20	3868,50
956,63	3696,00
957,06	3859,00
957,49	4155,00
957,93	3691,00
958,36	3877,50
958,79	3797,00
959,22	3779,00
959,65	3726,25
960,08	3748,25
960,52	3625,75
960,95	3784,75
961,38	3878,00
961,81	3868,00
962,24	3913,75
962,67	3864,50
963,11	3746,75
963,54	3811,25
963,97	3772,75
964,40	3802,00
964,83	3770,75
965,26	3744,75
965,69	3892,25
966,13	3756,50
966,56	3782,25
966,99	3839,75
967,42	3775,25
967,85	3753,50
968,28	3934,25
968,71	4307,50
969,14	3901,75
969,57	3788,25
970,01	3837,00
970,44	3725,00
970,87	3762,00
971,30	3864,75
971,73	3765,75
972,16	3797,75
972,59	3681,25
973,02	3724,75
973,45	3801,75
973,88	3842,25
974,31	3776,00
974,74	3862,50
975,17	3840,00
975,61	3759,25
976,04	3743,75
976,47	3733,25
976,90	3802,50
977,33	3708,75
977,76	3863,25
978,19	3836,25
978,62	3774,25
979,05	3772,75
979,48	3769,50
979,91	3911,00
980,34	3856,25
980,77	3736,75
981,20	3832,50
981,63	3911,50
982,06	3770,75
982,49	3774,25
982,92	3759,75
983,35	3749,50
983,78	3750,75
984,21	3896,50
984,64	3896,25
985,07	3693,75
985,50	3636,25
985,93	3768,75
986,36	3859,25
986,79	3783,75
987,22	3734,00
987,65	3875,75
988,08	3808,75
988,51	3801,25
988,94	3780,50
989,37	3833,75
989,80	3792,25
990,23	3766,50
990,66	3817,00
991,09	3806,50
991,51	3828,00
991,94	4019,50
992,37	3767,25
992,80	3703,50
993,23	3806,50
993,66	3720,75
994,09	3744,75
994,52	3860,75
994,95	3903,75
995,38	3819,50
995,81	3783,75
996,24	3665,00
996,67	3697,00
997,09	3624,00
997,52	3934,00
997,95	3869,75
998,38	3757,75
998,81	3833,75
999,24	3712,00
999,67	3974,50
1000,10	3796,25
1000,53	3814,50
1000,95	3949,50
1001,38	3728,00
1001,81	3804,50
1002,24	3887,00
1002,67	3775,75
1003,10	3816,50
1003,53	3783,50
1003,95	3862,75
1004,38	3731,50
1004,81	3814,00
1005,24	3807,50
1005,67	3956,25
1006,10	3792,75
1006,52	3670,75
1006,95	3835,00
1007,38	3798,75
1007,81	3720,50
1008,24	3686,25
1008,67	3784,25
1009,09	3758,75
1009,52	4231,00
1009,95	3924,00
1010,38	3909,50
1010,81	3857,75
1011,23	3879,75
1011,66	3903,25
1012,09	3805,00
1012,52	3891,75
1012,95	3829,50
1013,37	3853,00
1013,80	3848,75
1014,23	3722,00
1014,66	3933,25
1015,08	3663,50
1015,51	3907,75
1015,94	3766,25
1016,37	3818,75
1016,80	3711,75
1017,22	3857,50
1017,65	3765,00
1018,08	3778,50
1018,51	3764,25
1018,93	3636,75
1019,36	4132,25
1019,79	3947,75
1020,21	3870,00
1020,64	3772,75
1021,07	3791,00
1021,50	3855,25
1021,92	3835,00
1022,35	3857,25
1022,78	3793,00
1023,21	4250,50
1023,63	3883,50
1024,06	3909,00
1024,49	3864,00
1024,91	3841,75
1025,34	3838,50
1025,77	3876,25
1026,19	3718,25
1026,62	3761,00
1027,05	4072,00
1027,47	3887,50
1027,90	3853,50
1028,33	3794,00
1028,75	3826,50
1029,18	3762,00
1029,61	4075,00
1030,03	3803,00
1030,46	3792,25
1030,89	3851,50
1031,31	3960,50
1031,74	3704,25
1032,17	3828,75
1032,59	3893,75
1033,02	3782,25
1033,45	3906,75
1033,87	3744,75
1034,30	3712,25
1034,73	3835,25
1035,15	3892,00
1035,58	3755,50
1036,00	3994,75
1036,43	3740,00
1036,86	3781,50
1037,28	3843,00
1037,71	3690,50
1038,13	3887,50
1038,56	3924,25
1038,99	3889,50
1039,41	3943,25
1039,84	4000,75
1040,26	3771,75
1040,69	3795,25
1041,11	3836,75
1041,54	3779,50
1041,97	3965,00
1042,39	3982,75
1042,82	3905,25
1043,24	3919,00
1043,67	3811,25
1044,09	3902,00
1044,52	3720,75
1044,95	3800,50
1045,37	3774,50
1045,80	3718,25
1046,22	3827,25
1046,65	3874,25
1047,07	3735,00
1047,50	3852,50
1047,92	3916,00
1048,35	3721,00
1048,77	3930,75
1049,20	3879,25
1049,62	3914,50
1050,05	3804,50
1050,47	3802,75
1050,90	3865,00
1051,32	3881,50
1051,75	3950,00
1052,17	3942,75
1052,60	3846,00
1053,02	3897,25
1053,45	3638,25
1053,87	3806,50
1054,30	3676,25
1054,72	3810,50
1055,15	3735,25
1055,57	3854,00
1056,00	3888,75
1056,42	4031,50
1056,85	3945,00
1057,27	3940,75
1057,70	3809,25
1058,12	4264,75
1058,54	3757,25
1058,97	3869,00
1059,39	3925,75
1059,82	3818,00
1060,24	3803,50
1060,67	3771,50
1061,09	3900,25
1061,51	3847,75
1061,94	3789,50
1062,36	3919,75
1062,79	3992,00
1063,21	3845,75
1063,64	3796,25
1064,06	3729,50
1064,48	3925,75
1064,91	3915,75
1065,33	3782,50
1065,76	3738,25
1066,18	3684,50
1066,60	3916,50
1067,03	3831,50
1067,45	3825,00
1067,87	3862,00
1068,30	3790,50
1068,72	4001,75
1069,15	3815,25
1069,57	3776,50
1069,99	3691,00
1070,42	3917,50
1070,84	3933,25
1071,26	3927,50
1071,69	3780,50
1072,11	3912,00
1072,53	3764,50
1072,96	3745,25
1073,38	3726,00
1073,80	3849,00
1074,23	3780,00
1074,65	3721,00
1075,07	3772,00
1075,50	3808,50
1075,92	3840,00
1076,34	3754,75
1076,77	3740,75
1077,19	3810,50
1077,61	3884,75
1078,04	3773,50
1078,46	3892,25
1078,88	3976,25
1079,30	3659,00
1079,73	3842,50
1080,15	3773,50
1080,57	3809,50
1081,00	3865,25
1081,42	3834,50
1081,84	3774,75
1082,26	3838,25
1082,69	3816,50
1083,11	3807,75
1083,53	3802,50
1083,95	3823,50
1084,38	3947,50
1084,80	3817,25
1085,22	3800,25
1085,64	3941,25
1086,07	3724,75
1086,49	3766,25
1086,91	3863,75
1087,33	3676,25
1087,76	3877,50
1088,18	6981,50
1088,60	3814,75
1089,02	3735,75
1089,45	3774,00
1089,87	3795,00
1090,29	3945,50
1090,71	3802,50
1091,13	3719,50
1091,56	3798,75
1091,98	3782,50
1092,40	3743,75
1092,82	3784,50
1093,24	3778,75
1093,66	3808,00
1094,09	3793,25
1094,51	3802,50
1094,93	3773,00
1095,35	3806,00
1095,77	3758,25
1096,19	3781,50
1096,62	3858,25
1097,04	3710,50
1097,46	3810,00
1097,88	3763,25
1098,30	3882,00
1098,72	3852,00
1099,15	3868,25
1099,57	3782,50
1099,99	3769,50
1100,41	3729,25
1100,83	3788,75
1101,25	3753,75
1101,67	3815,00
1102,09	3688,25
1102,52	3787,75
1102,94	3777,00
1103,36	3783,50
1103,78	3823,50
1104,20	3747,75
1104,62	3978,75
1105,04	3624,75
1105,46	3831,50
1105,88	3793,75
1106,30	3739,25
1106,73	3771,75
1107,15	3606,00
1107,57	3668,50
1107,99	3903,50
1108,41	3685,50
1108,83	3843,50
1109,25	3839,25
1109,67	3831,00
1110,09	3625,75
1110,51	3734,50
1110,93	3635,00
1111,35	3734,50
1111,77	3682,75
1112,19	3669,50
1112,61	3618,75
1113,03	3694,50
1113,45	3673,75
1113,87	3677,00
1114,29	3746,75
1114,71	3779,00
1115,13	3712,00
1115,55	3748,75
1115,98	3706,00
1116,40	3783,00
1116,82	3775,50
1117,24	3709,50
1117,66	3666,25
1118,08	2149,00
1118,50	2186,00
1118,91	2186,50
1119,33	2183,75
>>>>>End Processed Spectral Data<<<<<
