SpectraSuite Data File
++++++++++++++++++++++++++++++++++++
Date: Wed May 16 14:25:57 EEST 2012
User: OO Maya
Dark Spectrum Present: No
Reference Spectrum Present: No
Number of Sampled Component Spectra: 1
Spectrometers: MAYP11278
Integration Time (usec): 800000 (MAYP11278)
Spectra Averaged: 4 (MAYP11278)
Boxcar Smoothing: 0 (MAYP11278)
Correct for Electrical Dark: No (MAYP11278)
Strobe/Lamp Enabled: No (MAYP11278)
Correct for Detector Non-linearity: No (MAYP11278)
Correct for Stray Light: No (MAYP11278)
Number of Pixels in Processed Spectrum: 2068
>>>>>Begin Processed Spectral Data<<<<<
188,05	2293,75
188,53	2213,75
189,01	2181,50
189,49	2182,25
189,96	3362,50
190,44	3440,75
190,92	3385,25
191,40	3413,25
191,88	3482,25
192,36	3409,50
192,83	3385,00
193,31	3351,00
193,79	3407,75
194,27	3393,50
194,75	3460,75
195,23	3384,25
195,70	3459,25
196,18	3410,25
196,66	3403,50
197,14	3637,75
197,62	3425,50
198,09	3371,00
198,57	3402,50
199,05	3386,00
199,53	3461,25
200,01	3474,50
200,48	3401,50
200,96	3409,00
201,44	3496,50
201,92	3484,75
202,39	3482,50
202,87	3372,50
203,35	3469,50
203,83	3368,75
204,31	3506,00
204,78	3559,00
205,26	3401,50
205,74	3388,75
206,22	3551,50
206,69	3419,50
207,17	3468,00
207,65	3661,75
208,13	3454,75
208,60	3491,75
209,08	3411,75
209,56	3523,75
210,04	3469,50
210,51	3444,50
210,99	3434,75
211,47	3503,25
211,94	3461,75
212,42	3383,25
212,90	3601,00
213,38	3487,00
213,85	3426,75
214,33	3612,00
214,81	3469,50
215,29	3568,50
215,76	3480,75
216,24	3504,25
216,72	3510,00
217,19	3506,00
217,67	3445,25
218,15	3443,25
218,62	3577,75
219,10	3353,75
219,58	3392,50
220,05	3426,50
220,53	3452,25
221,01	3547,75
221,49	3453,75
221,96	3524,75
222,44	3403,50
222,92	3507,25
223,39	3439,75
223,87	3526,25
224,35	3467,25
224,82	3436,00
225,30	3387,00
225,78	3448,75
226,25	3442,75
226,73	3464,25
227,21	3520,25
227,68	3458,75
228,16	3499,00
228,63	3512,00
229,11	3529,50
229,59	3446,00
230,06	3459,25
230,54	3435,50
231,02	3535,75
231,49	3562,00
231,97	3481,75
232,45	3475,50
232,92	3402,50
233,40	3471,75
233,87	3482,25
234,35	3740,00
234,83	3487,00
235,30	3421,50
235,78	3426,00
236,25	3383,00
236,73	3535,25
237,21	3643,50
237,68	3443,75
238,16	3514,50
238,63	3479,00
239,11	3484,75
239,59	3479,50
240,06	3376,75
240,54	3520,00
241,01	3579,50
241,49	3482,00
241,96	3460,25
242,44	3547,00
242,92	3569,50
243,39	3387,75
243,87	3401,25
244,34	3534,75
244,82	3591,75
245,29	3463,25
245,77	3581,00
246,24	3568,25
246,72	3431,75
247,20	3484,25
247,67	3465,25
248,15	3495,25
248,62	3507,50
249,10	3369,25
249,57	3462,00
250,05	3544,25
250,52	3489,25
251,00	3590,00
251,47	3453,25
251,95	3660,50
252,42	3581,50
252,90	3439,00
253,37	3563,75
253,85	3481,25
254,32	3468,00
254,80	3492,75
255,27	3528,50
255,75	3540,25
256,22	3432,25
256,70	3493,00
257,17	3537,75
257,65	3559,25
258,12	3714,25
258,60	3517,75
259,07	3452,00
259,55	3488,00
260,02	3538,50
260,50	3633,25
260,97	3473,00
261,45	3440,00
261,92	3580,75
262,40	3419,00
262,87	3501,25
263,35	3453,50
263,82	3406,50
264,30	3559,25
264,77	3567,00
265,25	3460,75
265,72	3497,00
266,19	3517,75
266,67	3561,00
267,14	3450,50
267,62	3481,25
268,09	3512,75
268,57	3522,75
269,04	3365,75
269,51	3434,00
269,99	3442,00
270,46	3539,50
270,94	3564,00
271,41	3470,25
271,89	3501,50
272,36	3379,00
272,83	3409,25
273,31	3348,25
273,78	3505,50
274,26	3792,00
274,73	3556,00
275,20	3561,75
275,68	3433,50
276,15	3457,00
276,63	3529,00
277,10	3550,50
277,57	3400,50
278,05	3453,25
278,52	3388,50
279,00	3832,50
279,47	3442,00
279,94	3439,50
280,42	3791,25
280,89	3564,00
281,36	3768,75
281,84	3437,25
282,31	3607,75
282,78	3486,75
283,26	3465,75
283,73	3537,25
284,21	3446,25
284,68	3419,75
285,15	3549,25
285,63	3481,75
286,10	3518,00
286,57	3548,50
287,05	3395,50
287,52	3510,00
287,99	3631,75
288,47	3459,50
288,94	3523,25
289,41	3347,75
289,89	3593,00
290,36	3430,00
290,83	3509,75
291,30	3457,50
291,78	3543,25
292,25	3662,75
292,72	3425,50
293,20	3568,50
293,67	3445,50
294,14	3545,00
294,62	3504,00
295,09	3420,75
295,56	3506,75
296,03	3497,00
296,51	3646,75
296,98	3617,00
297,45	3548,25
297,93	3517,25
298,40	3526,00
298,87	3462,00
299,34	3608,25
299,82	3475,50
300,29	3516,00
300,76	3466,25
301,23	3575,00
301,71	3549,50
302,18	3562,00
302,65	3436,50
303,12	3527,75
303,60	3557,00
304,07	3427,00
304,54	3446,00
305,01	3407,75
305,49	3499,25
305,96	3527,00
306,43	3506,00
306,90	3539,50
307,38	3461,50
307,85	3459,50
308,32	3506,75
308,79	3453,75
309,27	3559,75
309,74	3567,25
310,21	3530,50
310,68	3515,50
311,15	3531,25
311,63	3454,00
312,10	3575,00
312,57	3515,00
313,04	3651,00
313,51	3453,25
313,99	3473,00
314,46	3500,00
314,93	3464,00
315,40	3442,00
315,87	3554,25
316,34	3546,25
316,82	3513,00
317,29	3546,00
317,76	3527,25
318,23	3737,00
318,70	3480,25
319,17	3482,00
319,65	3396,75
320,12	3543,25
320,59	3650,50
321,06	3565,00
321,53	3490,00
322,00	3393,25
322,48	3413,25
322,95	3632,75
323,42	3470,75
323,89	3704,50
324,36	3407,75
324,83	3507,00
325,30	3471,25
325,78	3453,25
326,25	3462,75
326,72	3447,75
327,19	3536,50
327,66	3550,50
328,13	3546,75
328,60	3501,00
329,07	3462,50
329,54	3477,50
330,02	3460,75
330,49	3435,25
330,96	3546,75
331,43	3526,00
331,90	3641,50
332,37	3447,00
332,84	3679,00
333,31	3562,50
333,78	3522,50
334,25	3610,25
334,72	3516,75
335,20	3539,25
335,67	3810,50
336,14	3447,00
336,61	3508,00
337,08	3487,50
337,55	3525,00
338,02	3472,00
338,49	3468,75
338,96	3630,50
339,43	3557,75
339,90	3421,25
340,37	3443,00
340,84	3426,00
341,31	3548,25
341,78	3598,00
342,25	3471,00
342,72	3527,25
343,19	3569,50
343,67	3517,75
344,14	3476,75
344,61	3496,00
345,08	3430,75
345,55	3505,75
346,02	3546,00
346,49	3461,50
346,96	3443,75
347,43	3626,25
347,90	3451,75
348,37	3584,00
348,84	3505,00
349,31	3394,25
349,78	3523,25
350,25	3567,00
350,72	3523,00
351,19	3449,25
351,66	3553,50
352,13	3659,00
352,60	3539,25
353,07	3483,25
353,54	3512,00
354,01	3570,50
354,48	3548,00
354,94	3541,75
355,41	3525,00
355,88	3617,25
356,35	3459,50
356,82	3651,50
357,29	3427,00
357,76	3690,50
358,23	3550,00
358,70	3426,25
359,17	3414,00
359,64	3458,75
360,11	3450,75
360,58	3575,25
361,05	3600,50
361,52	3482,50
361,99	3492,25
362,46	3510,00
362,93	3469,25
363,39	3498,50
363,86	3716,00
364,33	3552,00
364,80	3443,75
365,27	3548,25
365,74	3468,25
366,21	3399,75
366,68	3527,25
367,15	3515,25
367,62	3505,50
368,09	3381,50
368,55	3441,25
369,02	3588,75
369,49	3414,00
369,96	3573,00
370,43	3506,75
370,90	3468,50
371,37	3463,00
371,84	3547,25
372,31	3430,00
372,77	3403,75
373,24	3511,75
373,71	3519,00
374,18	3406,75
374,65	3437,50
375,12	3528,00
375,59	3383,25
376,05	3598,50
376,52	3467,75
376,99	3415,75
377,46	3406,00
377,93	3525,75
378,40	3530,00
378,86	3489,75
379,33	3503,75
379,80	3487,25
380,27	3558,75
380,74	3628,00
381,21	3501,75
381,67	3618,25
382,14	3628,75
382,61	3381,00
383,08	3516,75
383,55	3487,25
384,02	3570,50
384,48	3511,00
384,95	3966,75
385,42	3507,75
385,89	3466,75
386,36	3478,75
386,82	3646,50
387,29	3449,00
387,76	3404,50
388,23	3568,00
388,69	3519,25
389,16	3631,75
389,63	3443,75
390,10	3544,75
390,57	3500,00
391,03	3540,00
391,50	3531,25
391,97	3508,00
392,44	3548,50
392,90	3487,25
393,37	3465,50
393,84	3710,50
394,31	3496,50
394,77	3599,75
395,24	3432,00
395,71	3557,00
396,18	3911,75
396,64	3409,75
397,11	3531,50
397,58	3575,00
398,05	3425,75
398,51	3505,75
398,98	3447,25
399,45	3431,50
399,92	3574,00
400,38	3403,75
400,85	3491,00
401,32	3471,75
401,78	3550,25
402,25	3527,50
402,72	3500,00
403,18	3436,25
403,65	3619,50
404,12	3507,25
404,59	3601,00
405,05	3647,00
405,52	3580,75
405,99	3426,50
406,45	3600,00
406,92	3531,50
407,39	3687,25
407,85	3518,50
408,32	3513,00
408,79	3543,00
409,25	3409,75
409,72	3600,50
410,19	3431,75
410,65	3573,25
411,12	3455,50
411,59	3615,50
412,05	3433,50
412,52	3402,50
412,99	3545,75
413,45	3486,25
413,92	3554,50
414,39	3551,00
414,85	3639,25
415,32	3484,75
415,78	3637,75
416,25	3537,00
416,72	3502,75
417,18	3662,00
417,65	3557,00
418,12	3471,50
418,58	3531,50
419,05	3504,00
419,51	3564,00
419,98	3438,00
420,45	3571,00
420,91	3438,75
421,38	3516,00
421,84	3452,25
422,31	3523,00
422,78	3488,25
423,24	3495,50
423,71	3556,00
424,17	3573,00
424,64	3486,50
425,11	3567,50
425,57	3494,50
426,04	3599,00
426,50	3488,75
426,97	3608,75
427,43	3551,00
427,90	3560,75
428,37	3433,75
428,83	3576,50
429,30	3519,75
429,76	3488,25
430,23	3519,00
430,69	3796,25
431,16	3396,25
431,62	3494,50
432,09	3618,50
432,55	3607,00
433,02	3491,75
433,48	3454,75
433,95	3536,25
434,42	3500,50
434,88	3569,25
435,35	3427,50
435,81	3567,25
436,28	3504,25
436,74	3399,50
437,21	3582,25
437,67	3548,00
438,14	3529,50
438,60	3457,00
439,07	3502,00
439,53	3851,75
440,00	3557,75
440,46	3561,25
440,93	3583,50
441,39	3438,25
441,86	3491,50
442,32	3702,75
442,79	3431,75
443,25	3519,50
443,72	3509,75
444,18	3395,75
444,64	3649,00
445,11	3541,50
445,57	3515,25
446,04	3500,25
446,50	3533,00
446,97	3485,75
447,43	3508,00
447,90	3465,25
448,36	3442,50
448,83	3561,00
449,29	3554,25
449,75	3494,00
450,22	3435,50
450,68	3434,25
451,15	3467,75
451,61	3519,00
452,08	3574,75
452,54	3429,50
453,00	3592,00
453,47	3481,00
453,93	3480,25
454,40	3499,00
454,86	3538,50
455,32	3474,00
455,79	3498,00
456,25	3574,75
456,72	3425,75
457,18	3607,75
457,64	3478,75
458,11	3507,00
458,57	3425,00
459,04	3514,50
459,50	3489,75
459,96	3503,00
460,43	3451,25
460,89	3409,50
461,36	3606,75
461,82	3575,50
462,28	3444,75
462,75	3396,50
463,21	3591,25
463,67	3460,75
464,14	3523,50
464,60	3505,00
465,06	3428,75
465,53	3459,25
465,99	3588,25
466,45	3490,75
466,92	3529,50
467,38	3537,75
467,84	3474,75
468,31	3512,50
468,77	3540,50
469,23	3506,50
469,70	3417,75
470,16	3514,50
470,62	3519,75
471,09	3441,00
471,55	3470,25
472,01	3463,25
472,48	3450,25
472,94	3468,25
473,40	3598,75
473,87	3473,25
474,33	3436,25
474,79	3473,25
475,25	3403,00
475,72	3513,00
476,18	3504,25
476,64	3515,50
477,11	3481,50
477,57	3492,25
478,03	3604,00
478,49	3492,50
478,96	3569,50
479,42	3445,50
479,88	3635,00
480,35	3528,25
480,81	3488,50
481,27	3433,00
481,73	3466,25
482,20	3500,25
482,66	3397,00
483,12	3477,50
483,58	3387,25
484,05	3460,50
484,51	3603,75
484,97	3508,50
485,43	3490,25
485,89	3358,50
486,36	3475,50
486,82	3371,00
487,28	3519,00
487,74	3384,00
488,21	3406,25
488,67	3424,25
489,13	3469,75
489,59	3470,25
490,05	3567,75
490,52	3381,00
490,98	3478,00
491,44	3393,75
491,90	3424,75
492,36	3353,00
492,83	3585,00
493,29	3498,25
493,75	3486,75
494,21	3400,50
494,67	3450,50
495,14	3424,25
495,60	3397,25
496,06	3530,50
496,52	3445,25
496,98	3464,75
497,44	3629,75
497,91	3562,25
498,37	3420,00
498,83	3486,25
499,29	3429,75
499,75	3671,75
500,21	3488,25
500,67	3419,00
501,14	3463,00
501,60	3434,75
502,06	3524,50
502,52	3458,75
502,98	3454,75
503,44	3461,00
503,90	3507,25
504,37	3434,25
504,83	3520,00
505,29	3496,50
505,75	3416,25
506,21	3461,75
506,67	3550,75
507,13	3460,75
507,59	3521,50
508,05	3515,75
508,51	3427,50
508,98	3431,75
509,44	3360,00
509,90	3442,00
510,36	3447,00
510,82	3427,75
511,28	3569,25
511,74	3566,75
512,20	3401,00
512,66	3355,00
513,12	3412,50
513,58	3513,75
514,04	3338,00
514,51	3556,00
514,97	3617,75
515,43	3361,00
515,89	3501,25
516,35	3555,75
516,81	3527,50
517,27	3702,75
517,73	3523,00
518,19	3496,00
518,65	3792,00
519,11	3443,00
519,57	3425,75
520,03	3401,50
520,49	3418,25
520,95	3492,00
521,41	3484,75
521,87	3549,25
522,33	3460,75
522,79	3367,75
523,25	3621,00
523,71	3529,75
524,17	3456,25
524,63	3592,50
525,09	3527,75
525,55	3519,50
526,01	3581,75
526,47	3508,50
526,93	3462,00
527,39	3448,25
527,85	3441,00
528,31	3545,75
528,77	3513,00
529,23	3445,25
529,69	3392,25
530,15	3523,50
530,61	3526,25
531,07	3399,25
531,53	3556,25
531,99	3492,50
532,45	3455,50
532,91	3465,50
533,37	3506,00
533,83	3442,50
534,29	3391,50
534,75	3456,75
535,21	3437,50
535,67	3505,00
536,12	3423,75
536,58	3518,75
537,04	3403,25
537,50	3514,00
537,96	3446,25
538,42	3473,50
538,88	3614,50
539,34	3517,25
539,80	3932,25
540,26	3361,00
540,72	3618,75
541,18	3476,50
541,63	3374,50
542,09	3514,75
542,55	3512,50
543,01	3445,25
543,47	3724,50
543,93	3391,75
544,39	3638,25
544,85	3551,75
545,31	3461,25
545,76	3429,00
546,22	3556,00
546,68	3479,25
547,14	3494,25
547,60	3528,50
548,06	3483,50
548,52	3459,50
548,98	3453,50
549,43	3407,00
549,89	3672,75
550,35	3451,25
550,81	3381,75
551,27	3494,50
551,73	3478,00
552,19	3643,25
552,64	3480,25
553,10	3410,25
553,56	3489,25
554,02	3444,50
554,48	3406,25
554,93	3509,50
555,39	3476,00
555,85	3633,50
556,31	3484,25
556,77	3563,75
557,23	3365,75
557,68	3483,00
558,14	3654,25
558,60	3454,50
559,06	3465,75
559,52	3412,50
559,97	3394,25
560,43	3404,00
560,89	3475,25
561,35	3463,75
561,81	3478,25
562,26	3442,00
562,72	3409,25
563,18	3464,50
563,64	3597,50
564,09	3413,25
564,55	3485,25
565,01	3447,50
565,47	3437,50
565,92	3476,50
566,38	3572,25
566,84	3438,00
567,30	3431,50
567,75	3476,50
568,21	3548,25
568,67	3421,00
569,13	3473,25
569,58	3535,25
570,04	3484,50
570,50	3456,00
570,96	3546,75
571,41	3507,25
571,87	3471,25
572,33	3473,00
572,78	3521,25
573,24	3428,50
573,70	3426,50
574,16	3473,75
574,61	3583,25
575,07	3535,00
575,53	3379,75
575,98	3500,75
576,44	3356,00
576,90	3574,00
577,36	3440,50
577,81	3445,75
578,27	3392,00
578,73	3582,50
579,18	3487,75
579,64	3414,50
580,10	3490,75
580,55	3474,75
581,01	3474,75
581,47	3468,00
581,92	3483,25
582,38	3459,00
582,84	3386,25
583,29	3474,75
583,75	3481,50
584,21	3458,00
584,66	3515,00
585,12	3415,25
585,57	3703,50
586,03	3444,50
586,49	3440,50
586,94	3440,25
587,40	3466,50
587,86	3554,75
588,31	3370,50
588,77	3531,50
589,22	3459,75
589,68	3419,25
590,14	3504,50
590,59	3538,25
591,05	3435,00
591,51	3374,75
591,96	3565,25
592,42	3443,50
592,87	3487,75
593,33	3458,25
593,78	3534,25
594,24	3456,50
594,70	3482,75
595,15	3591,25
595,61	3430,50
596,06	3414,50
596,52	3606,25
596,98	3525,50
597,43	3581,50
597,89	3479,00
598,34	3373,50
598,80	3466,25
599,25	3585,50
599,71	3428,25
600,16	3518,75
600,62	3590,50
601,08	3497,25
601,53	3551,75
601,99	3387,75
602,44	3737,75
602,90	3434,00
603,35	3470,75
603,81	3371,25
604,26	3351,75
604,72	3505,25
605,17	3458,00
605,63	3514,25
606,08	3471,25
606,54	3373,00
606,99	3463,25
607,45	3438,00
607,90	3471,00
608,36	3516,00
608,81	3483,75
609,27	3702,00
609,72	3535,75
610,18	3465,00
610,63	3435,75
611,09	3497,00
611,54	3384,50
612,00	3600,25
612,45	3504,25
612,91	3482,00
613,36	3767,25
613,82	3399,25
614,27	3366,00
614,73	3383,50
615,18	3388,25
615,64	3453,25
616,09	3467,25
616,54	3393,00
617,00	3460,75
617,45	3460,00
617,91	3528,00
618,36	3416,25
618,82	3428,50
619,27	3447,75
619,72	3531,75
620,18	3437,75
620,63	3535,50
621,09	3568,75
621,54	3464,00
622,00	3533,50
622,45	3586,50
622,90	3554,75
623,36	3424,00
623,81	3416,75
624,27	3570,00
624,72	3378,50
625,17	3434,25
625,63	3501,50
626,08	3418,25
626,54	3463,50
626,99	3479,50
627,44	3422,25
627,90	3503,00
628,35	3524,75
628,81	3333,00
629,26	3465,25
629,71	3502,50
630,17	3411,00
630,62	3510,00
631,07	3469,50
631,53	3510,25
631,98	3485,75
632,43	3551,25
632,89	3433,75
633,34	3423,75
633,79	3413,75
634,25	3431,00
634,70	3404,50
635,15	3435,00
635,61	3412,75
636,06	3354,75
636,51	3452,50
636,97	3457,50
637,42	3401,25
637,87	3536,00
638,33	3547,00
638,78	3425,25
639,23	3456,75
639,69	3391,75
640,14	3358,25
640,59	3489,00
641,05	3547,75
641,50	3370,00
641,95	3457,75
642,40	3440,50
642,86	3354,75
643,31	3406,00
643,76	3505,75
644,22	3429,50
644,67	3401,25
645,12	3417,25
645,57	3377,50
646,03	3471,75
646,48	3496,50
646,93	3497,50
647,38	3523,50
647,84	3483,00
648,29	3478,75
648,74	3368,75
649,19	3575,25
649,65	3483,50
650,10	3853,00
650,55	3382,75
651,00	3407,50
651,46	3430,00
651,91	3481,50
652,36	3384,25
652,81	3456,50
653,27	3428,50
653,72	3398,50
654,17	3462,50
654,62	3482,75
655,07	3421,00
655,53	3372,25
655,98	3542,50
656,43	3395,25
656,88	3460,75
657,33	3499,25
657,79	3522,00
658,24	3404,00
658,69	3469,50
659,14	3391,50
659,59	3843,25
660,05	3433,75
660,50	3554,00
660,95	3443,75
661,40	3382,75
661,85	3441,75
662,30	3393,50
662,76	3362,75
663,21	3478,75
663,66	3413,75
664,11	3424,00
664,56	3450,75
665,01	3370,25
665,47	3474,25
665,92	3388,25
666,37	3481,25
666,82	3453,50
667,27	3678,50
667,72	3584,50
668,17	3399,75
668,62	3488,25
669,08	3380,25
669,53	3667,50
669,98	3332,50
670,43	3378,25
670,88	3547,50
671,33	3470,75
671,78	3608,25
672,23	3668,75
672,69	3435,25
673,14	3462,00
673,59	3550,75
674,04	3771,75
674,49	3468,50
674,94	3479,75
675,39	3364,00
675,84	3357,00
676,29	3472,75
676,74	3441,00
677,19	3428,25
677,64	3431,25
678,10	3710,00
678,55	3427,00
679,00	3417,25
679,45	3459,00
679,90	3429,75
680,35	3448,25
680,80	3445,75
681,25	3302,50
681,70	3306,00
682,15	3439,75
682,60	3467,00
683,05	3523,00
683,50	3482,00
683,95	3466,50
684,40	3567,50
684,85	3509,75
685,30	3489,75
685,75	3493,25
686,20	3434,00
686,65	3377,00
687,10	3465,00
687,55	3412,25
688,00	3468,25
688,45	3418,75
688,90	3712,25
689,35	3499,50
689,80	3321,00
690,25	3443,00
690,70	3437,75
691,15	3366,25
691,60	3463,00
692,05	3354,00
692,50	3461,25
692,95	3440,75
693,40	3512,00
693,85	3504,50
694,30	3445,25
694,75	3454,00
695,20	3858,75
695,65	3448,00
696,10	3469,50
696,55	3623,00
697,00	3447,00
697,45	3415,75
697,90	3494,00
698,35	3391,50
698,80	3526,50
699,24	3506,25
699,69	3407,50
700,14	3411,25
700,59	3519,75
701,04	3522,75
701,49	3809,50
701,94	3364,25
702,39	3589,00
702,84	3413,00
703,29	3437,75
703,74	3482,00
704,19	3434,50
704,63	3417,25
705,08	3572,00
705,53	3545,75
705,98	3535,75
706,43	3376,00
706,88	3516,25
707,33	3458,75
707,78	3437,50
708,22	3480,25
708,67	3544,25
709,12	3472,00
709,57	3425,00
710,02	3464,75
710,47	3453,50
710,92	3421,25
711,37	3494,00
711,81	3473,25
712,26	3461,50
712,71	3387,50
713,16	3644,00
713,61	3441,75
714,06	3477,75
714,50	3574,50
714,95	3523,75
715,40	3447,50
715,85	3465,50
716,30	3427,00
716,75	3417,75
717,19	3364,25
717,64	3342,00
718,09	3490,50
718,54	3636,75
718,99	3371,00
719,43	3367,25
719,88	3451,75
720,33	3445,75
720,78	3434,50
721,23	3477,50
721,67	3410,75
722,12	3490,75
722,57	3442,75
723,02	3362,75
723,47	3339,25
723,91	3482,25
724,36	3332,50
724,81	3508,25
725,26	3358,25
725,70	3442,25
726,15	3435,75
726,60	3460,75
727,05	3620,50
727,49	3408,50
727,94	3569,00
728,39	3490,75
728,84	3422,50
729,28	3565,25
729,73	3405,50
730,18	3528,25
730,63	3380,50
731,07	3472,50
731,52	3503,75
731,97	3478,00
732,41	3456,00
732,86	3393,00
733,31	3533,00
733,76	3454,50
734,20	3386,50
734,65	3514,75
735,10	3510,00
735,54	3458,25
735,99	3694,75
736,44	3408,00
736,89	3471,25
737,33	3515,00
737,78	3523,75
738,23	3453,50
738,67	3447,50
739,12	3463,75
739,57	3357,00
740,01	3535,75
740,46	3465,00
740,91	3382,25
741,35	3496,50
741,80	3513,25
742,25	3460,50
742,69	3472,50
743,14	3375,25
743,59	3370,50
744,03	3439,75
744,48	3539,50
744,92	3543,75
745,37	3461,00
745,82	3539,75
746,26	3600,25
746,71	3309,50
747,16	3385,75
747,60	3332,75
748,05	3493,50
748,49	3445,25
748,94	3417,50
749,39	3482,75
749,83	3710,25
750,28	3481,50
750,73	3427,75
751,17	3369,50
751,62	3423,50
752,06	3414,25
752,51	3440,50
752,95	3632,00
753,40	3405,00
753,85	3422,50
754,29	3360,00
754,74	3416,50
755,18	3383,50
755,63	3428,00
756,07	3466,25
756,52	3554,50
756,97	3428,00
757,41	3571,25
757,86	3473,00
758,30	3422,75
758,75	3436,25
759,19	3414,25
759,64	3386,00
760,08	3429,75
760,53	3489,25
760,98	3451,75
761,42	3497,50
761,87	3558,00
762,31	3422,25
762,76	3388,00
763,20	3436,00
763,65	3508,25
764,09	3448,25
764,54	3357,25
764,98	3413,50
765,43	3475,25
765,87	3400,50
766,32	3365,75
766,76	3413,75
767,21	3457,50
767,65	3460,25
768,10	3473,75
768,54	3523,00
768,99	3444,00
769,43	3616,75
769,88	3399,25
770,32	3422,75
770,77	3387,50
771,21	3350,00
771,65	3510,00
772,10	3468,75
772,54	3477,00
772,99	3351,75
773,43	3430,50
773,88	3420,75
774,32	3323,50
774,77	3422,00
775,21	3370,50
775,65	3483,50
776,10	3440,25
776,54	3384,00
776,99	3423,25
777,43	3414,50
777,88	3518,25
778,32	3492,25
778,76	3414,50
779,21	3479,25
779,65	3705,25
780,10	3593,75
780,54	3454,50
780,99	3535,75
781,43	3478,25
781,87	3397,25
782,32	3454,00
782,76	3376,75
783,20	3435,00
783,65	3517,75
784,09	3528,00
784,54	3437,25
784,98	3430,00
785,42	3431,75
785,87	3373,50
786,31	3535,00
786,75	3501,50
787,20	3561,50
787,64	3370,25
788,09	3411,50
788,53	3454,00
788,97	3394,50
789,42	3420,00
789,86	3402,25
790,30	3442,25
790,75	3370,75
791,19	3417,00
791,63	3531,25
792,08	3419,25
792,52	3475,75
792,96	3403,25
793,41	3824,00
793,85	3537,50
794,29	3440,25
794,74	3462,50
795,18	3437,00
795,62	3355,00
796,06	3522,50
796,51	3454,25
796,95	3460,00
797,39	3405,50
797,84	3370,75
798,28	3421,25
798,72	3556,50
799,16	3476,25
799,61	3376,75
800,05	3599,00
800,49	3505,25
800,94	3374,50
801,38	3468,00
801,82	3451,75
802,26	3389,75
802,71	3553,00
803,15	3603,25
803,59	3511,50
804,03	3474,00
804,48	3423,50
804,92	3398,50
805,36	3607,75
805,80	3657,25
806,25	3622,25
806,69	3524,75
807,13	3631,00
807,57	3428,50
808,01	3464,75
808,46	3400,50
808,90	3489,75
809,34	3453,50
809,78	3420,50
810,23	3367,75
810,67	3487,00
811,11	3588,75
811,55	3768,00
811,99	3433,25
812,44	3405,75
812,88	3497,25
813,32	3629,75
813,76	3556,00
814,20	3480,50
814,64	3507,50
815,09	3520,25
815,53	3466,75
815,97	3410,25
816,41	3402,25
816,85	3408,25
817,29	3508,25
817,74	3459,00
818,18	3558,50
818,62	3431,00
819,06	3520,75
819,50	3568,75
819,94	3435,25
820,39	3483,00
820,83	3446,00
821,27	3468,75
821,71	3389,50
822,15	3591,00
822,59	3393,25
823,03	3487,25
823,47	3492,75
823,92	3380,00
824,36	3462,50
824,80	3441,25
825,24	3477,00
825,68	3478,75
826,12	3385,00
826,56	3432,25
827,00	3310,75
827,44	3471,00
827,88	3524,75
828,33	3560,00
828,77	3415,75
829,21	3517,00
829,65	3481,25
830,09	3408,50
830,53	3599,50
830,97	3423,50
831,41	3676,00
831,85	3557,25
832,29	3493,25
832,73	3378,75
833,17	3468,25
833,61	3442,00
834,05	3541,50
834,49	3519,25
834,93	3445,25
835,37	3418,00
835,82	3537,75
836,26	3444,25
836,70	3465,25
837,14	3437,00
837,58	3539,50
838,02	3392,25
838,46	3401,50
838,90	3496,75
839,34	3464,50
839,78	3615,25
840,22	3676,75
840,66	3479,25
841,10	3550,50
841,54	3347,25
841,98	3415,50
842,42	3368,00
842,86	3439,75
843,30	3507,50
843,74	3438,50
844,18	3515,25
844,62	3484,50
845,06	3410,75
845,50	3528,50
845,94	3452,50
846,37	3534,75
846,81	3413,00
847,25	3372,25
847,69	3467,00
848,13	3378,50
848,57	3443,50
849,01	3417,50
849,45	3500,75
849,89	3557,75
850,33	3503,25
850,77	3436,50
851,21	3529,25
851,65	3395,75
852,09	3494,50
852,53	3530,50
852,97	3400,00
853,40	3414,25
853,84	3522,25
854,28	3368,25
854,72	3531,50
855,16	3362,75
855,60	3389,25
856,04	3550,25
856,48	3587,75
856,92	3455,75
857,36	3506,75
857,79	3457,25
858,23	3372,75
858,67	3562,75
859,11	3343,25
859,55	3388,75
859,99	3414,00
860,43	3452,75
860,87	3460,75
861,30	3507,50
861,74	3405,25
862,18	3440,00
862,62	3484,00
863,06	3407,75
863,50	3425,50
863,94	3517,75
864,37	3401,75
864,81	3457,25
865,25	3438,75
865,69	3359,25
866,13	3437,25
866,57	3328,50
867,00	3505,25
867,44	3373,50
867,88	3472,75
868,32	3439,75
868,76	3412,75
869,19	3492,00
869,63	3447,50
870,07	3567,25
870,51	3704,00
870,95	3376,00
871,38	3448,75
871,82	3463,75
872,26	3403,25
872,70	3459,25
873,14	3489,25
873,57	3441,00
874,01	3536,50
874,45	3520,25
874,89	3425,00
875,32	3379,25
875,76	3530,25
876,20	3331,75
876,64	3492,25
877,07	3442,00
877,51	3436,50
877,95	3439,25
878,39	3450,00
878,82	3506,50
879,26	3459,75
879,70	3607,00
880,14	3388,50
880,57	3390,25
881,01	3415,50
881,45	3444,00
881,89	3513,75
882,32	3436,25
882,76	3439,00
883,20	3446,25
883,63	3434,25
884,07	3373,25
884,51	3494,25
884,94	3443,50
885,38	3515,50
885,82	3527,25
886,26	3418,75
886,69	3394,50
887,13	3585,50
887,57	3367,75
888,00	3390,75
888,44	3441,50
888,88	3410,50
889,31	3738,75
889,75	3360,50
890,19	3538,25
890,62	3400,25
891,06	3512,00
891,50	3476,75
891,93	3352,25
892,37	3377,50
892,81	3426,75
893,24	3361,50
893,68	3416,50
894,11	3464,25
894,55	3429,50
894,99	3491,50
895,42	3432,25
895,86	3393,75
896,30	3436,00
896,73	3479,00
897,17	3389,75
897,60	3360,00
898,04	3404,75
898,48	3472,50
898,91	3540,25
899,35	3390,00
899,78	3397,75
900,22	3419,00
900,66	3503,50
901,09	3491,00
901,53	3417,25
901,96	3626,00
902,40	3647,50
902,84	3362,50
903,27	3454,25
903,71	3599,75
904,14	3383,75
904,58	3482,75
905,01	3380,25
905,45	3439,25
905,88	3376,75
906,32	3573,25
906,76	3475,25
907,19	3548,75
907,63	3476,25
908,06	3435,00
908,50	3487,50
908,93	3616,75
909,37	3446,00
909,80	3346,00
910,24	3478,00
910,67	3451,75
911,11	3418,00
911,54	3399,00
911,98	3440,50
912,41	3476,50
912,85	3446,00
913,28	3478,25
913,72	3480,50
914,15	3432,00
914,59	3372,00
915,02	3364,00
915,46	3427,25
915,89	3392,50
916,33	3520,75
916,76	3395,75
917,20	3537,75
917,63	3413,25
918,07	3525,00
918,50	3414,25
918,94	3430,75
919,37	3442,00
919,81	3493,25
920,24	3516,00
920,67	3474,50
921,11	3595,00
921,54	3488,00
921,98	3426,00
922,41	3373,50
922,85	3349,50
923,28	3465,75
923,72	3588,25
924,15	3514,50
924,58	3345,50
925,02	3517,50
925,45	3375,75
925,89	3528,75
926,32	3638,25
926,75	3430,75
927,19	3493,50
927,62	3365,25
928,06	3644,25
928,49	3440,25
928,92	3359,50
929,36	3544,00
929,79	3440,25
930,23	3481,00
930,66	3537,00
931,09	3404,75
931,53	3488,25
931,96	3319,50
932,39	3591,25
932,83	3550,00
933,26	3690,00
933,70	3417,75
934,13	3541,75
934,56	3514,00
935,00	3504,50
935,43	3480,50
935,86	3373,00
936,30	3447,50
936,73	3415,75
937,16	3480,00
937,60	3377,25
938,03	3506,75
938,46	3405,75
938,90	3435,50
939,33	3499,50
939,76	3381,00
940,19	3453,75
940,63	3515,75
941,06	3626,00
941,49	3413,50
941,93	3531,00
942,36	3389,75
942,79	3421,75
943,23	3534,50
943,66	3375,50
944,09	3366,75
944,52	3511,25
944,96	3425,00
945,39	3509,25
945,82	3444,00
946,26	3441,75
946,69	3467,75
947,12	3548,50
947,55	3415,00
947,99	3458,00
948,42	3498,00
948,85	3335,75
949,28	3376,25
949,72	3360,50
950,15	3680,75
950,58	3585,50
951,01	3424,50
951,45	3388,00
951,88	3481,50
952,31	3341,00
952,74	3501,75
953,17	3419,75
953,61	3629,25
954,04	3356,00
954,47	3405,00
954,90	3422,75
955,33	3408,25
955,77	3431,75
956,20	3501,75
956,63	3356,50
957,06	3499,50
957,49	3712,25
957,93	3372,25
958,36	3491,25
958,79	3468,25
959,22	3410,50
959,65	3390,75
960,08	3409,00
960,52	3331,75
960,95	3419,50
961,38	3522,00
961,81	3480,75
962,24	3509,50
962,67	3514,50
963,11	3406,50
963,54	3457,50
963,97	3429,50
964,40	3441,50
964,83	3430,25
965,26	3416,50
965,69	3499,75
966,13	3418,25
966,56	3418,25
966,99	3507,00
967,42	3414,25
967,85	3413,50
968,28	3568,75
968,71	3813,00
969,14	3501,00
969,57	3440,75
970,01	3466,50
970,44	3359,25
970,87	3401,00
971,30	3478,75
971,73	3397,25
972,16	3444,50
972,59	3354,75
973,02	3395,75
973,45	3420,00
973,88	3496,75
974,31	3436,00
974,74	3493,25
975,17	3470,25
975,61	3403,50
976,04	3385,75
976,47	3389,50
976,90	3471,25
977,33	3382,75
977,76	3499,75
978,19	3452,75
978,62	3417,00
979,05	3416,75
979,48	3423,50
979,91	3529,25
980,34	3501,50
980,77	3408,75
981,20	3473,00
981,63	3515,00
982,06	3450,75
982,49	3423,25
982,92	3410,25
983,35	3404,00
983,78	3399,75
984,21	3517,75
984,64	3518,75
985,07	3370,25
985,50	3311,25
985,93	3413,75
986,36	3497,25
986,79	3430,50
987,22	3384,75
987,65	3499,25
988,08	3455,00
988,51	3449,00
988,94	3446,00
989,37	3459,00
989,80	3432,00
990,23	3418,75
990,66	3459,50
991,09	3449,50
991,51	3457,75
991,94	3609,50
992,37	3410,00
992,80	3393,00
993,23	3448,00
993,66	3373,75
994,09	3400,25
994,52	3487,75
994,95	3512,25
995,38	3473,50
995,81	3427,00
996,24	3343,50
996,67	3358,00
997,09	3317,00
997,52	3553,00
997,95	3514,75
998,38	3406,50
998,81	3488,00
999,24	3383,25
999,67	3571,75
1000,10	3439,50
1000,53	3444,50
1000,95	3574,25
1001,38	3361,25
1001,81	3456,00
1002,24	3502,75
1002,67	3446,25
1003,10	3462,00
1003,53	3463,75
1003,95	3502,00
1004,38	3376,75
1004,81	3482,25
1005,24	3464,75
1005,67	3563,50
1006,10	3432,75
1006,52	3340,50
1006,95	3475,00
1007,38	3442,50
1007,81	3379,50
1008,24	3370,50
1008,67	3433,25
1009,09	3390,00
1009,52	3775,75
1009,95	3544,00
1010,38	3525,25
1010,81	3499,50
1011,23	3503,25
1011,66	3542,00
1012,09	3427,00
1012,52	3518,25
1012,95	3454,50
1013,37	3488,75
1013,80	3479,75
1014,23	3366,25
1014,66	3558,75
1015,08	3334,75
1015,51	3508,75
1015,94	3404,00
1016,37	3469,25
1016,80	3360,75
1017,22	3471,50
1017,65	3425,00
1018,08	3447,50
1018,51	3428,75
1018,93	3339,00
1019,36	3706,00
1019,79	3542,00
1020,21	3483,50
1020,64	3410,25
1021,07	3427,00
1021,50	3479,50
1021,92	3477,00
1022,35	3483,50
1022,78	3444,50
1023,21	3773,75
1023,63	3534,50
1024,06	3532,00
1024,49	3487,00
1024,91	3470,00
1025,34	3461,25
1025,77	3504,75
1026,19	3394,25
1026,62	3397,00
1027,05	3680,50
1027,47	3489,75
1027,90	3486,50
1028,33	3442,25
1028,75	3477,75
1029,18	3421,25
1029,61	3663,75
1030,03	3447,50
1030,46	3433,50
1030,89	3487,75
1031,31	3587,25
1031,74	3367,75
1032,17	3469,25
1032,59	3526,75
1033,02	3422,25
1033,45	3530,50
1033,87	3407,25
1034,30	3385,50
1034,73	3493,00
1035,15	3519,00
1035,58	3407,50
1036,00	3593,75
1036,43	3409,50
1036,86	3412,00
1037,28	3485,25
1037,71	3362,75
1038,13	3529,00
1038,56	3537,75
1038,99	3499,00
1039,41	3551,50
1039,84	3617,50
1040,26	3417,25
1040,69	3444,50
1041,11	3478,25
1041,54	3421,25
1041,97	3582,50
1042,39	3564,00
1042,82	3511,00
1043,24	3538,75
1043,67	3444,25
1044,09	3536,50
1044,52	3378,50
1044,95	3455,75
1045,37	3422,25
1045,80	3375,00
1046,22	3468,75
1046,65	3512,25
1047,07	3376,50
1047,50	3485,00
1047,92	3537,50
1048,35	3389,50
1048,77	3540,75
1049,20	3490,25
1049,62	3528,25
1050,05	3424,00
1050,47	3435,25
1050,90	3513,50
1051,32	3511,25
1051,75	3569,75
1052,17	3551,00
1052,60	3448,00
1053,02	3525,75
1053,45	3311,25
1053,87	3453,00
1054,30	3339,00
1054,72	3469,00
1055,15	3409,75
1055,57	3475,50
1056,00	3504,50
1056,42	3628,50
1056,85	3566,25
1057,27	3565,75
1057,70	3463,50
1058,12	3807,50
1058,54	3398,75
1058,97	3490,50
1059,39	3523,25
1059,82	3457,00
1060,24	3440,25
1060,67	3403,00
1061,09	3515,00
1061,51	3472,50
1061,94	3425,00
1062,36	3547,50
1062,79	3614,75
1063,21	3484,25
1063,64	3431,00
1064,06	3403,75
1064,48	3525,25
1064,91	3547,00
1065,33	3435,25
1065,76	3423,00
1066,18	3359,25
1066,60	3537,00
1067,03	3453,75
1067,45	3466,00
1067,87	3485,25
1068,30	3441,00
1068,72	3606,50
1069,15	3476,25
1069,57	3414,75
1069,99	3365,50
1070,42	3541,75
1070,84	3547,00
1071,26	3531,50
1071,69	3429,75
1072,11	3527,00
1072,53	3400,50
1072,96	3399,50
1073,38	3359,75
1073,80	3514,00
1074,23	3425,25
1074,65	3376,75
1075,07	3413,25
1075,50	3439,00
1075,92	3471,00
1076,34	3408,00
1076,77	3391,75
1077,19	3437,75
1077,61	3531,00
1078,04	3425,50
1078,46	3508,00
1078,88	3577,75
1079,30	3331,00
1079,73	3495,25
1080,15	3421,25
1080,57	3463,25
1081,00	3497,25
1081,42	3451,00
1081,84	3429,00
1082,26	3481,00
1082,69	3456,75
1083,11	3465,75
1083,53	3444,25
1083,95	3467,25
1084,38	3533,75
1084,80	3474,75
1085,22	3437,25
1085,64	3547,25
1086,07	3374,25
1086,49	3425,50
1086,91	3479,00
1087,33	3364,50
1087,76	3516,50
1088,18	6133,25
1088,60	3463,00
1089,02	3406,25
1089,45	3420,25
1089,87	3436,50
1090,29	3561,00
1090,71	3425,75
1091,13	3382,50
1091,56	3431,50
1091,98	3419,75
1092,40	3398,75
1092,82	3443,00
1093,24	3428,00
1093,66	3456,75
1094,09	3437,00
1094,51	3458,00
1094,93	3415,25
1095,35	3461,00
1095,77	3388,75
1096,19	3453,25
1096,62	3492,25
1097,04	3378,25
1097,46	3453,00
1097,88	3398,25
1098,30	3504,75
1098,72	3478,00
1099,15	3497,00
1099,57	3441,00
1099,99	3442,25
1100,41	3388,25
1100,83	3437,50
1101,25	3393,50
1101,67	3447,50
1102,09	3362,00
1102,52	3420,25
1102,94	3417,75
1103,36	3432,50
1103,78	3471,25
1104,20	3409,75
1104,62	3580,50
1105,04	3314,75
1105,46	3472,25
1105,88	3437,50
1106,30	3386,75
1106,73	3438,50
1107,15	3299,50
1107,57	3347,75
1107,99	3528,75
1108,41	3343,25
1108,83	3484,00
1109,25	3479,50
1109,67	3461,25
1110,09	3282,75
1110,51	3407,75
1110,93	3320,75
1111,35	3398,50
1111,77	3331,75
1112,19	3338,00
1112,61	3318,75
1113,03	3365,75
1113,45	3341,25
1113,87	3340,25
1114,29	3396,50
1114,71	3453,50
1115,13	3376,00
1115,55	3381,75
1115,98	3378,50
1116,40	3444,25
1116,82	3420,25
1117,24	3377,25
1117,66	3344,00
1118,08	2156,25
1118,50	2186,50
1118,91	2184,50
1119,33	2180,75
>>>>>End Processed Spectral Data<<<<<
