SpectraSuite Data File
++++++++++++++++++++++++++++++++++++
Date: Wed May 16 14:21:41 EEST 2012
User: OO Maya
Dark Spectrum Present: No
Reference Spectrum Present: No
Number of Sampled Component Spectra: 1
Spectrometers: MAYP11278
Integration Time (usec): 700000 (MAYP11278)
Spectra Averaged: 4 (MAYP11278)
Boxcar Smoothing: 0 (MAYP11278)
Correct for Electrical Dark: No (MAYP11278)
Strobe/Lamp Enabled: No (MAYP11278)
Correct for Detector Non-linearity: No (MAYP11278)
Correct for Stray Light: No (MAYP11278)
Number of Pixels in Processed Spectrum: 2068
>>>>>Begin Processed Spectral Data<<<<<
188,05	2294,25
188,53	2212,00
189,01	2179,50
189,49	2185,25
189,96	3211,75
190,44	3248,75
190,92	3216,00
191,40	3271,50
191,88	3317,00
192,36	3212,75
192,83	3194,50
193,31	3171,25
193,79	3240,50
194,27	3218,00
194,75	3267,00
195,23	3203,50
195,70	3292,25
196,18	3222,00
196,66	3257,25
197,14	3425,25
197,62	3250,50
198,09	3199,50
198,57	3225,75
199,05	3219,75
199,53	3270,00
200,01	3294,25
200,48	3238,00
200,96	3242,25
201,44	3294,25
201,92	3302,75
202,39	3299,25
202,87	3187,00
203,35	3296,25
203,83	3206,25
204,31	3309,75
204,78	3330,50
205,26	3225,00
205,74	3228,75
206,22	3337,75
206,69	3223,50
207,17	3266,00
207,65	3443,00
208,13	3265,75
208,60	3278,75
209,08	3251,75
209,56	3319,50
210,04	3291,25
210,51	3255,50
210,99	3247,75
211,47	3304,00
211,94	3276,25
212,42	3220,25
212,90	3392,00
213,38	3307,50
213,85	3247,50
214,33	3395,00
214,81	3289,25
215,29	3382,75
215,76	3302,25
216,24	3308,25
216,72	3313,50
217,19	3306,25
217,67	3257,75
218,15	3251,50
218,62	3364,00
219,10	3186,00
219,58	3235,75
220,05	3254,25
220,53	3285,75
221,01	3334,50
221,49	3254,75
221,96	3315,00
222,44	3235,00
222,92	3342,00
223,39	3240,50
223,87	3352,75
224,35	3287,25
224,82	3254,75
225,30	3213,50
225,78	3274,75
226,25	3219,00
226,73	3283,00
227,21	3339,75
227,68	3288,75
228,16	3315,00
228,63	3313,50
229,11	3323,50
229,59	3278,75
230,06	3275,75
230,54	3260,50
231,02	3319,25
231,49	3349,25
231,97	3294,00
232,45	3301,00
232,92	3229,50
233,40	3289,00
233,87	3289,00
234,35	3526,75
234,83	3295,75
235,30	3229,50
235,78	3250,25
236,25	3213,25
236,73	3341,75
237,21	3430,00
237,68	3251,25
238,16	3310,50
238,63	3282,25
239,11	3303,00
239,59	3266,50
240,06	3207,75
240,54	3334,25
241,01	3351,75
241,49	3295,75
241,96	3272,50
242,44	3344,00
242,92	3355,00
243,39	3209,00
243,87	3248,50
244,34	3344,75
244,82	3398,50
245,29	3278,75
245,77	3364,50
246,24	3350,00
246,72	3242,50
247,20	3301,75
247,67	3284,50
248,15	3304,50
248,62	3317,75
249,10	3189,50
249,57	3300,25
250,05	3344,50
250,52	3308,00
251,00	3379,00
251,47	3288,25
251,95	3428,75
252,42	3382,50
252,90	3261,00
253,37	3373,50
253,85	3310,25
254,32	3273,75
254,80	3304,00
255,27	3327,25
255,75	3365,00
256,22	3233,50
256,70	3318,75
257,17	3333,75
257,65	3349,00
258,12	3503,50
258,60	3320,50
259,07	3264,75
259,55	3299,25
260,02	3340,50
260,50	3397,25
260,97	3246,25
261,45	3268,75
261,92	3369,50
262,40	3255,75
262,87	3309,75
263,35	3318,00
263,82	3218,25
264,30	3360,00
264,77	3360,00
265,25	3286,25
265,72	3317,75
266,19	3314,75
266,67	3356,00
267,14	3280,75
267,62	3288,75
268,09	3303,00
268,57	3329,25
269,04	3193,25
269,51	3239,75
269,99	3253,50
270,46	3342,00
270,94	3366,00
271,41	3268,00
271,89	3305,00
272,36	3220,00
272,83	3214,50
273,31	3155,00
273,78	3308,00
274,26	3543,50
274,73	3346,75
275,20	3363,50
275,68	3265,50
276,15	3282,75
276,63	3329,00
277,10	3351,25
277,57	3217,25
278,05	3265,00
278,52	3228,25
279,00	3572,75
279,47	3262,75
279,94	3269,00
280,42	3576,00
280,89	3372,75
281,36	3530,75
281,84	3250,75
282,31	3365,50
282,78	3275,50
283,26	3298,00
283,73	3319,25
284,21	3252,25
284,68	3220,75
285,15	3375,50
285,63	3293,00
286,10	3319,00
286,57	3329,50
287,05	3219,50
287,52	3320,75
287,99	3407,50
288,47	3281,50
288,94	3349,50
289,41	3193,00
289,89	3395,75
290,36	3227,00
290,83	3322,75
291,30	3249,00
291,78	3335,75
292,25	3462,75
292,72	3251,25
293,20	3362,75
293,67	3253,25
294,14	3348,00
294,62	3334,00
295,09	3259,75
295,56	3313,00
296,03	3311,75
296,51	3431,25
296,98	3430,00
297,45	3339,50
297,93	3311,50
298,40	3346,50
298,87	3273,50
299,34	3402,25
299,82	3285,50
300,29	3330,25
300,76	3267,25
301,23	3359,25
301,71	3360,00
302,18	3341,00
302,65	3235,50
303,12	3357,25
303,60	3379,00
304,07	3247,25
304,54	3275,00
305,01	3249,75
305,49	3309,50
305,96	3329,00
306,43	3311,00
306,90	3343,25
307,38	3255,25
307,85	3273,25
308,32	3323,00
308,79	3259,00
309,27	3367,75
309,74	3371,75
310,21	3337,50
310,68	3336,00
311,15	3330,25
311,63	3269,50
312,10	3366,25
312,57	3305,00
313,04	3440,50
313,51	3279,50
313,99	3260,25
314,46	3309,75
314,93	3289,50
315,40	3266,25
315,87	3381,50
316,34	3357,75
316,82	3331,75
317,29	3347,50
317,76	3317,25
318,23	3512,25
318,70	3330,50
319,17	3308,75
319,65	3239,00
320,12	3333,75
320,59	3431,00
321,06	3362,75
321,53	3287,75
322,00	3195,75
322,48	3267,00
322,95	3427,00
323,42	3271,50
323,89	3494,75
324,36	3230,00
324,83	3310,25
325,30	3290,50
325,78	3268,75
326,25	3285,00
326,72	3276,00
327,19	3347,00
327,66	3332,75
328,13	3314,50
328,60	3327,50
329,07	3273,25
329,54	3289,75
330,02	3259,75
330,49	3244,00
330,96	3360,25
331,43	3319,00
331,90	3435,50
332,37	3270,00
332,84	3450,00
333,31	3351,00
333,78	3329,25
334,25	3394,00
334,72	3309,25
335,20	3328,75
335,67	3563,75
336,14	3245,75
336,61	3299,25
337,08	3285,50
337,55	3329,00
338,02	3286,00
338,49	3287,25
338,96	3431,50
339,43	3382,50
339,90	3254,75
340,37	3251,75
340,84	3250,50
341,31	3364,75
341,78	3374,75
342,25	3279,75
342,72	3331,75
343,19	3368,25
343,67	3319,50
344,14	3274,25
344,61	3311,25
345,08	3258,00
345,55	3302,00
346,02	3340,50
346,49	3263,75
346,96	3261,25
347,43	3433,25
347,90	3266,75
348,37	3403,00
348,84	3315,25
349,31	3200,00
349,78	3306,75
350,25	3348,00
350,72	3326,00
351,19	3253,50
351,66	3334,25
352,13	3455,00
352,60	3314,75
353,07	3285,25
353,54	3338,75
354,01	3338,50
354,48	3345,25
354,94	3345,50
355,41	3323,00
355,88	3428,50
356,35	3252,50
356,82	3429,25
357,29	3266,75
357,76	3466,50
358,23	3350,25
358,70	3227,75
359,17	3249,75
359,64	3274,50
360,11	3271,00
360,58	3398,00
361,05	3416,00
361,52	3279,25
361,99	3293,00
362,46	3323,25
362,93	3300,50
363,39	3319,50
363,86	3481,25
364,33	3343,25
364,80	3260,50
365,27	3352,75
365,74	3278,50
366,21	3230,00
366,68	3332,75
367,15	3324,25
367,62	3297,25
368,09	3216,50
368,55	3236,50
369,02	3368,75
369,49	3234,50
369,96	3384,50
370,43	3327,25
370,90	3267,75
371,37	3266,50
371,84	3336,75
372,31	3271,00
372,77	3222,00
373,24	3296,50
373,71	3318,75
374,18	3234,00
374,65	3237,00
375,12	3310,00
375,59	3198,00
376,05	3393,25
376,52	3286,00
376,99	3224,75
377,46	3228,75
377,93	3320,00
378,40	3320,25
378,86	3314,50
379,33	3310,75
379,80	3286,00
380,27	3365,25
380,74	3416,00
381,21	3320,50
381,67	3416,00
382,14	3407,75
382,61	3206,25
383,08	3323,00
383,55	3288,50
384,02	3382,75
384,48	3309,50
384,95	3691,50
385,42	3318,75
385,89	3290,25
386,36	3304,75
386,82	3416,50
387,29	3235,50
387,76	3230,00
388,23	3374,50
388,69	3326,25
389,16	3405,75
389,63	3245,75
390,10	3345,50
390,57	3318,00
391,03	3345,00
391,50	3343,75
391,97	3307,50
392,44	3342,25
392,90	3276,25
393,37	3275,25
393,84	3491,50
394,31	3321,00
394,77	3379,75
395,24	3244,50
395,71	3351,50
396,18	3662,75
396,64	3238,00
397,11	3342,00
397,58	3366,00
398,05	3247,75
398,51	3304,75
398,98	3277,75
399,45	3241,75
399,92	3391,25
400,38	3255,00
400,85	3283,00
401,32	3281,50
401,78	3361,25
402,25	3329,50
402,72	3320,00
403,18	3274,50
403,65	3419,75
404,12	3313,25
404,59	3392,75
405,05	3446,75
405,52	3390,00
405,99	3237,50
406,45	3373,50
406,92	3343,75
407,39	3454,25
407,85	3307,50
408,32	3338,00
408,79	3347,25
409,25	3233,00
409,72	3394,25
410,19	3219,25
410,65	3384,75
411,12	3257,50
411,59	3392,50
412,05	3247,00
412,52	3212,50
412,99	3338,75
413,45	3316,25
413,92	3338,50
414,39	3340,50
414,85	3434,75
415,32	3296,75
415,78	3424,00
416,25	3349,75
416,72	3323,00
417,18	3435,00
417,65	3326,75
418,12	3309,25
418,58	3333,50
419,05	3303,50
419,51	3374,50
419,98	3262,75
420,45	3365,25
420,91	3248,50
421,38	3294,00
421,84	3267,75
422,31	3334,75
422,78	3285,50
423,24	3297,00
423,71	3339,75
424,17	3364,50
424,64	3283,25
425,11	3361,00
425,57	3300,50
426,04	3411,00
426,50	3297,25
426,97	3405,50
427,43	3356,50
427,90	3356,75
428,37	3247,00
428,83	3397,00
429,30	3346,50
429,76	3301,50
430,23	3341,25
430,69	3557,75
431,16	3235,75
431,62	3294,75
432,09	3418,75
432,55	3381,25
433,02	3296,75
433,48	3260,75
433,95	3323,25
434,42	3296,50
434,88	3375,00
435,35	3236,00
435,81	3367,25
436,28	3312,75
436,74	3229,25
437,21	3362,25
437,67	3343,00
438,14	3351,50
438,60	3289,00
439,07	3301,00
439,53	3606,00
440,00	3346,75
440,46	3369,00
440,93	3379,50
441,39	3270,00
441,86	3298,25
442,32	3515,75
442,79	3252,00
443,25	3342,75
443,72	3325,25
444,18	3227,75
444,64	3428,25
445,11	3326,00
445,57	3326,50
446,04	3303,25
446,50	3359,50
446,97	3319,00
447,43	3328,25
447,90	3268,50
448,36	3292,25
448,83	3339,25
449,29	3354,50
449,75	3323,25
450,22	3249,50
450,68	3255,25
451,15	3298,50
451,61	3315,25
452,08	3372,25
452,54	3256,00
453,00	3403,00
453,47	3317,75
453,93	3300,75
454,40	3328,50
454,86	3368,25
455,32	3289,75
455,79	3319,00
456,25	3366,25
456,72	3277,75
457,18	3389,75
457,64	3272,00
458,11	3289,25
458,57	3259,25
459,04	3328,50
459,50	3306,25
459,96	3331,25
460,43	3302,25
460,89	3249,00
461,36	3410,00
461,82	3375,75
462,28	3253,25
462,75	3215,50
463,21	3391,75
463,67	3297,00
464,14	3310,25
464,60	3313,50
465,06	3249,50
465,53	3290,50
465,99	3384,75
466,45	3313,25
466,92	3354,00
467,38	3351,25
467,84	3309,50
468,31	3322,25
468,77	3347,50
469,23	3303,75
469,70	3242,75
470,16	3331,25
470,62	3322,25
471,09	3285,50
471,55	3277,50
472,01	3252,25
472,48	3284,00
472,94	3295,50
473,40	3394,25
473,87	3288,50
474,33	3247,00
474,79	3298,25
475,25	3243,25
475,72	3329,50
476,18	3293,25
476,64	3329,50
477,11	3296,75
477,57	3306,75
478,03	3402,00
478,49	3325,00
478,96	3360,00
479,42	3255,00
479,88	3416,00
480,35	3323,25
480,81	3314,75
481,27	3238,75
481,73	3305,25
482,20	3316,00
482,66	3231,25
483,12	3296,50
483,58	3221,00
484,05	3261,00
484,51	3382,50
484,97	3311,00
485,43	3292,75
485,89	3189,25
486,36	3291,50
486,82	3205,25
487,28	3310,75
487,74	3207,50
488,21	3221,50
488,67	3263,50
489,13	3307,25
489,59	3296,75
490,05	3377,50
490,52	3228,50
490,98	3296,25
491,44	3216,00
491,90	3249,50
492,36	3189,25
492,83	3369,00
493,29	3309,50
493,75	3294,50
494,21	3240,00
494,67	3280,25
495,14	3254,00
495,60	3239,75
496,06	3312,50
496,52	3257,50
496,98	3286,25
497,44	3421,00
497,91	3362,50
498,37	3239,50
498,83	3297,00
499,29	3280,75
499,75	3450,00
500,21	3289,50
500,67	3257,50
501,14	3292,00
501,60	3255,00
502,06	3323,50
502,52	3276,00
502,98	3287,00
503,44	3301,50
503,90	3313,50
504,37	3268,75
504,83	3327,50
505,29	3289,25
505,75	3246,00
506,21	3266,00
506,67	3357,50
507,13	3280,75
507,59	3335,75
508,05	3305,00
508,51	3225,50
508,98	3253,50
509,44	3202,25
509,90	3265,00
510,36	3279,75
510,82	3250,00
511,28	3376,25
511,74	3380,50
512,20	3239,50
512,66	3163,25
513,12	3223,50
513,58	3314,00
514,04	3177,25
514,51	3362,75
514,97	3404,50
515,43	3181,75
515,89	3309,75
516,35	3376,75
516,81	3363,75
517,27	3477,00
517,73	3314,25
518,19	3294,00
518,65	3571,50
519,11	3276,00
519,57	3253,25
520,03	3210,50
520,49	3226,50
520,95	3293,00
521,41	3331,00
521,87	3328,50
522,33	3296,75
522,79	3205,25
523,25	3424,50
523,71	3350,00
524,17	3272,25
524,63	3407,50
525,09	3318,25
525,55	3343,00
526,01	3369,25
526,47	3318,00
526,93	3287,50
527,39	3280,25
527,85	3278,25
528,31	3321,25
528,77	3327,50
529,23	3277,25
529,69	3227,50
530,15	3327,00
530,61	3325,25
531,07	3217,50
531,53	3366,75
531,99	3310,50
532,45	3283,25
532,91	3279,75
533,37	3296,75
533,83	3281,75
534,29	3224,00
534,75	3256,50
535,21	3257,00
535,67	3301,00
536,12	3242,75
536,58	3326,00
537,04	3226,25
537,50	3335,75
537,96	3262,00
538,42	3295,75
538,88	3419,25
539,34	3337,00
539,80	3699,50
540,26	3201,75
540,72	3440,75
541,18	3297,25
541,63	3233,25
542,09	3331,00
542,55	3327,25
543,01	3262,25
543,47	3522,50
543,93	3229,50
544,39	3438,25
544,85	3329,75
545,31	3272,00
545,76	3261,75
546,22	3357,00
546,68	3285,50
547,14	3314,50
547,60	3345,50
548,06	3312,00
548,52	3257,75
548,98	3265,75
549,43	3221,75
549,89	3444,00
550,35	3273,00
550,81	3196,75
551,27	3311,00
551,73	3294,75
552,19	3430,25
552,64	3310,75
553,10	3227,75
553,56	3332,25
554,02	3267,50
554,48	3239,00
554,93	3319,00
555,39	3294,50
555,85	3412,00
556,31	3308,00
556,77	3382,25
557,23	3184,25
557,68	3307,00
558,14	3440,75
558,60	3274,25
559,06	3271,25
559,52	3234,50
559,97	3249,00
560,43	3227,25
560,89	3281,25
561,35	3278,75
561,81	3295,25
562,26	3254,25
562,72	3237,50
563,18	3286,00
563,64	3399,25
564,09	3215,75
564,55	3322,00
565,01	3270,25
565,47	3255,25
565,92	3306,00
566,38	3382,75
566,84	3265,25
567,30	3255,00
567,75	3302,25
568,21	3363,00
568,67	3264,00
569,13	3291,75
569,58	3330,25
570,04	3293,50
570,50	3291,00
570,96	3349,75
571,41	3329,75
571,87	3300,75
572,33	3310,50
572,78	3320,25
573,24	3243,75
573,70	3272,25
574,16	3280,50
574,61	3396,75
575,07	3342,50
575,53	3226,00
575,98	3310,75
576,44	3169,50
576,90	3377,25
577,36	3255,25
577,81	3279,75
578,27	3224,75
578,73	3367,00
579,18	3300,25
579,64	3245,75
580,10	3316,00
580,55	3305,75
581,01	3297,50
581,47	3271,50
581,92	3328,50
582,38	3297,75
582,84	3213,00
583,29	3306,75
583,75	3309,50
584,21	3263,75
584,66	3338,50
585,12	3256,25
585,57	3490,75
586,03	3264,00
586,49	3275,75
586,94	3295,50
587,40	3285,50
587,86	3370,00
588,31	3215,50
588,77	3336,75
589,22	3276,75
589,68	3247,50
590,14	3333,75
590,59	3334,75
591,05	3263,50
591,51	3177,75
591,96	3393,50
592,42	3256,25
592,87	3304,75
593,33	3279,25
593,78	3332,50
594,24	3278,00
594,70	3286,50
595,15	3394,50
595,61	3248,00
596,06	3224,25
596,52	3396,75
596,98	3341,50
597,43	3372,00
597,89	3289,50
598,34	3211,50
598,80	3285,25
599,25	3374,75
599,71	3248,00
600,16	3313,00
600,62	3372,75
601,08	3314,75
601,53	3365,00
601,99	3205,25
602,44	3534,00
602,90	3259,00
603,35	3283,75
603,81	3214,50
604,26	3181,75
604,72	3329,50
605,17	3282,50
605,63	3316,25
606,08	3295,50
606,54	3190,75
606,99	3286,75
607,45	3285,00
607,90	3292,75
608,36	3320,75
608,81	3307,50
609,27	3469,00
609,72	3375,00
610,18	3279,75
610,63	3240,25
611,09	3309,00
611,54	3206,75
612,00	3419,25
612,45	3316,75
612,91	3304,50
613,36	3539,50
613,82	3219,00
614,27	3194,25
614,73	3208,00
615,18	3199,25
615,64	3288,00
616,09	3276,25
616,54	3220,75
617,00	3298,25
617,45	3270,25
617,91	3351,75
618,36	3239,00
618,82	3254,25
619,27	3280,75
619,72	3353,00
620,18	3264,75
620,63	3339,50
621,09	3360,00
621,54	3269,00
622,00	3366,75
622,45	3370,50
622,90	3341,00
623,36	3245,75
623,81	3237,75
624,27	3373,75
624,72	3212,00
625,17	3268,50
625,63	3295,25
626,08	3238,50
626,54	3273,00
626,99	3315,00
627,44	3236,50
627,90	3325,50
628,35	3321,50
628,81	3166,75
629,26	3287,00
629,71	3307,75
630,17	3241,75
630,62	3326,25
631,07	3275,75
631,53	3324,75
631,98	3322,50
632,43	3357,00
632,89	3253,50
633,34	3250,50
633,79	3220,50
634,25	3248,25
634,70	3232,00
635,15	3272,50
635,61	3233,50
636,06	3194,50
636,51	3281,25
636,97	3276,50
637,42	3218,00
637,87	3317,50
638,33	3360,25
638,78	3253,25
639,23	3288,00
639,69	3224,00
640,14	3181,00
640,59	3301,25
641,05	3349,00
641,50	3173,00
641,95	3263,00
642,40	3261,50
642,86	3207,50
643,31	3245,50
643,76	3320,25
644,22	3235,25
644,67	3210,50
645,12	3249,50
645,57	3217,25
646,03	3275,75
646,48	3288,25
646,93	3310,75
647,38	3334,00
647,84	3286,75
648,29	3291,00
648,74	3201,25
649,19	3351,00
649,65	3312,50
650,10	3608,00
650,55	3235,25
651,00	3218,50
651,46	3247,75
651,91	3293,00
652,36	3201,75
652,81	3271,75
653,27	3251,25
653,72	3235,25
654,17	3276,50
654,62	3287,50
655,07	3250,00
655,53	3241,50
655,98	3323,50
656,43	3220,00
656,88	3262,50
657,33	3319,75
657,79	3325,75
658,24	3227,50
658,69	3273,75
659,14	3199,50
659,59	3603,00
660,05	3241,75
660,50	3334,50
660,95	3265,50
661,40	3220,50
661,85	3251,75
662,30	3202,00
662,76	3188,25
663,21	3296,25
663,66	3230,75
664,11	3242,00
664,56	3263,00
665,01	3190,50
665,47	3278,75
665,92	3210,75
666,37	3285,50
666,82	3261,00
667,27	3465,50
667,72	3378,50
668,17	3213,75
668,62	3297,75
669,08	3212,00
669,53	3451,75
669,98	3155,25
670,43	3200,75
670,88	3354,00
671,33	3272,00
671,78	3422,75
672,23	3459,25
672,69	3260,50
673,14	3263,75
673,59	3376,25
674,04	3527,75
674,49	3295,00
674,94	3307,25
675,39	3190,75
675,84	3192,25
676,29	3276,75
676,74	3269,00
677,19	3267,00
677,64	3238,00
678,10	3479,50
678,55	3242,25
679,00	3247,25
679,45	3298,25
679,90	3243,75
680,35	3265,25
680,80	3259,75
681,25	3162,00
681,70	3175,00
682,15	3252,00
682,60	3288,00
683,05	3328,75
683,50	3297,50
683,95	3281,50
684,40	3377,00
684,85	3305,50
685,30	3300,00
685,75	3310,75
686,20	3269,25
686,65	3202,50
687,10	3267,00
687,55	3226,00
688,00	3282,75
688,45	3251,00
688,90	3494,50
689,35	3323,00
689,80	3174,50
690,25	3254,75
690,70	3271,75
691,15	3181,75
691,60	3268,50
692,05	3195,75
692,50	3263,50
692,95	3250,75
693,40	3329,75
693,85	3303,00
694,30	3270,00
694,75	3282,25
695,20	3616,75
695,65	3289,25
696,10	3272,00
696,55	3433,00
697,00	3273,00
697,45	3224,50
697,90	3308,25
698,35	3202,75
698,80	3328,00
699,24	3316,75
699,69	3237,00
700,14	3260,75
700,59	3310,50
701,04	3339,00
701,49	3587,50
701,94	3204,75
702,39	3377,50
702,84	3254,50
703,29	3245,50
703,74	3291,25
704,19	3247,50
704,63	3240,25
705,08	3361,50
705,53	3361,25
705,98	3332,00
706,43	3195,50
706,88	3325,75
707,33	3259,00
707,78	3228,50
708,22	3319,50
708,67	3343,25
709,12	3284,75
709,57	3247,75
710,02	3263,50
710,47	3272,75
710,92	3235,00
711,37	3311,00
711,81	3284,25
712,26	3292,75
712,71	3216,75
713,16	3422,50
713,61	3269,25
714,06	3305,25
714,50	3391,25
714,95	3337,25
715,40	3257,25
715,85	3295,75
716,30	3231,00
716,75	3248,25
717,19	3195,75
717,64	3176,00
718,09	3287,50
718,54	3403,00
718,99	3200,50
719,43	3198,25
719,88	3271,75
720,33	3251,50
720,78	3245,00
721,23	3289,75
721,67	3239,00
722,12	3298,75
722,57	3254,25
723,02	3204,00
723,47	3162,25
723,91	3278,50
724,36	3173,75
724,81	3328,75
725,26	3192,25
725,70	3259,25
726,15	3267,00
726,60	3281,50
727,05	3417,00
727,49	3222,00
727,94	3365,00
728,39	3304,00
728,84	3269,00
729,28	3353,00
729,73	3216,75
730,18	3330,25
730,63	3198,75
731,07	3278,25
731,52	3309,25
731,97	3294,50
732,41	3299,75
732,86	3214,50
733,31	3338,50
733,76	3277,50
734,20	3224,25
734,65	3305,50
735,10	3308,00
735,54	3263,00
735,99	3502,25
736,44	3210,00
736,89	3274,50
737,33	3329,00
737,78	3326,75
738,23	3263,25
738,67	3232,25
739,12	3276,25
739,57	3185,50
740,01	3353,50
740,46	3291,75
740,91	3200,00
741,35	3303,25
741,80	3308,75
742,25	3278,75
742,69	3296,25
743,14	3213,50
743,59	3216,50
744,03	3264,00
744,48	3350,50
744,92	3332,50
745,37	3266,00
745,82	3323,00
746,26	3400,75
746,71	3129,50
747,16	3212,75
747,60	3183,25
748,05	3295,75
748,49	3267,25
748,94	3243,00
749,39	3278,25
749,83	3490,25
750,28	3271,00
750,73	3251,75
751,17	3205,00
751,62	3229,50
752,06	3245,25
752,51	3259,75
752,95	3408,00
753,40	3226,75
753,85	3248,25
754,29	3173,25
754,74	3234,75
755,18	3205,25
755,63	3236,50
756,07	3281,75
756,52	3346,50
756,97	3241,75
757,41	3359,00
757,86	3275,75
758,30	3256,00
758,75	3254,50
759,19	3248,50
759,64	3197,00
760,08	3257,00
760,53	3289,00
760,98	3263,00
761,42	3317,00
761,87	3371,25
762,31	3248,25
762,76	3178,00
763,20	3249,75
763,65	3324,50
764,09	3271,50
764,54	3194,00
764,98	3233,25
765,43	3289,25
765,87	3214,75
766,32	3182,75
766,76	3217,50
767,21	3258,25
767,65	3282,50
768,10	3284,75
768,54	3302,75
768,99	3260,75
769,43	3433,00
769,88	3202,00
770,32	3257,50
770,77	3220,75
771,21	3186,50
771,65	3322,75
772,10	3285,25
772,54	3284,25
772,99	3196,50
773,43	3249,50
773,88	3263,50
774,32	3147,75
774,77	3263,50
775,21	3192,00
775,65	3281,00
776,10	3267,75
776,54	3192,75
776,99	3258,25
777,43	3230,25
777,88	3298,00
778,32	3303,75
778,76	3237,50
779,21	3271,25
779,65	3489,50
780,10	3380,50
780,54	3273,50
780,99	3330,00
781,43	3288,00
781,87	3217,75
782,32	3277,25
782,76	3202,00
783,20	3246,75
783,65	3320,50
784,09	3330,75
784,54	3276,75
784,98	3239,00
785,42	3237,75
785,87	3209,00
786,31	3336,50
786,75	3315,00
787,20	3364,25
787,64	3196,75
788,09	3214,00
788,53	3295,00
788,97	3203,75
789,42	3252,00
789,86	3245,50
790,30	3254,75
790,75	3209,00
791,19	3242,75
791,63	3352,00
792,08	3234,00
792,52	3279,50
792,96	3229,75
793,41	3591,75
793,85	3326,00
794,29	3272,00
794,74	3277,50
795,18	3261,00
795,62	3197,25
796,06	3309,50
796,51	3265,75
796,95	3266,25
797,39	3214,25
797,84	3223,00
798,28	3254,00
798,72	3344,00
799,16	3271,50
799,61	3207,75
800,05	3394,75
800,49	3291,00
800,94	3214,25
801,38	3284,50
801,82	3294,50
802,26	3216,25
802,71	3347,25
803,15	3397,75
803,59	3322,25
804,03	3285,25
804,48	3274,50
804,92	3223,75
805,36	3400,00
805,80	3452,25
806,25	3383,00
806,69	3323,50
807,13	3448,50
807,57	3249,50
808,01	3267,25
808,46	3203,00
808,90	3298,75
809,34	3258,50
809,78	3250,00
810,23	3217,75
810,67	3303,50
811,11	3379,00
811,55	3548,00
811,99	3242,75
812,44	3218,25
812,88	3311,25
813,32	3406,00
813,76	3335,25
814,20	3280,50
814,64	3317,75
815,09	3318,25
815,53	3271,00
815,97	3240,50
816,41	3218,50
816,85	3229,00
817,29	3317,75
817,74	3257,00
818,18	3355,75
818,62	3235,50
819,06	3298,50
819,50	3354,75
819,94	3256,00
820,39	3304,75
820,83	3240,00
821,27	3286,50
821,71	3205,25
822,15	3386,25
822,59	3222,75
823,03	3279,00
823,47	3302,75
823,92	3202,75
824,36	3279,25
824,80	3267,25
825,24	3278,00
825,68	3286,25
826,12	3215,50
826,56	3243,75
827,00	3134,50
827,44	3274,00
827,88	3320,00
828,33	3346,75
828,77	3224,00
829,21	3350,00
829,65	3299,50
830,09	3244,50
830,53	3389,25
830,97	3239,50
831,41	3475,00
831,85	3349,25
832,29	3304,00
832,73	3202,75
833,17	3263,25
833,61	3265,00
834,05	3331,25
834,49	3327,50
834,93	3252,00
835,37	3240,25
835,82	3354,00
836,26	3248,50
836,70	3291,75
837,14	3257,00
837,58	3342,00
838,02	3215,75
838,46	3225,75
838,90	3286,50
839,34	3271,75
839,78	3399,50
840,22	3453,50
840,66	3286,75
841,10	3359,75
841,54	3182,25
841,98	3221,50
842,42	3192,25
842,86	3247,75
843,30	3314,50
843,74	3263,50
844,18	3321,25
844,62	3272,00
845,06	3237,00
845,50	3324,75
845,94	3259,25
846,37	3332,75
846,81	3237,00
847,25	3228,00
847,69	3278,25
848,13	3222,25
848,57	3250,75
849,01	3244,00
849,45	3310,25
849,89	3377,00
850,33	3314,25
850,77	3266,00
851,21	3325,25
851,65	3221,75
852,09	3293,25
852,53	3362,25
852,97	3245,00
853,40	3234,50
853,84	3323,25
854,28	3183,50
854,72	3325,50
855,16	3189,75
855,60	3234,00
856,04	3341,25
856,48	3382,25
856,92	3267,00
857,36	3302,50
857,79	3278,00
858,23	3225,50
858,67	3363,50
859,11	3160,25
859,55	3214,25
859,99	3234,00
860,43	3264,00
860,87	3256,50
861,30	3312,00
861,74	3223,50
862,18	3249,50
862,62	3313,25
863,06	3227,25
863,50	3255,25
863,94	3345,50
864,37	3221,00
864,81	3267,75
865,25	3269,00
865,69	3193,50
866,13	3266,00
866,57	3162,75
867,00	3318,50
867,44	3211,50
867,88	3299,25
868,32	3245,25
868,76	3214,25
869,19	3294,25
869,63	3242,50
870,07	3367,25
870,51	3468,50
870,95	3203,50
871,38	3260,75
871,82	3273,25
872,26	3225,75
872,70	3274,25
873,14	3305,25
873,57	3255,25
874,01	3339,00
874,45	3301,75
874,89	3253,25
875,32	3198,75
875,76	3369,75
876,20	3163,00
876,64	3301,75
877,07	3257,00
877,51	3277,75
877,95	3241,50
878,39	3263,75
878,82	3300,25
879,26	3258,75
879,70	3405,50
880,14	3200,75
880,57	3213,50
881,01	3240,00
881,45	3261,75
881,89	3323,50
882,32	3260,50
882,76	3246,75
883,20	3260,25
883,63	3248,50
884,07	3206,75
884,51	3321,75
884,94	3274,75
885,38	3308,25
885,82	3311,75
886,26	3254,50
886,69	3229,25
887,13	3395,25
887,57	3202,75
888,00	3221,50
888,44	3259,00
888,88	3242,50
889,31	3525,25
889,75	3196,25
890,19	3335,25
890,62	3236,75
891,06	3297,50
891,50	3293,00
891,93	3190,50
892,37	3209,00
892,81	3246,00
893,24	3192,75
893,68	3241,50
894,11	3275,75
894,55	3229,50
894,99	3324,25
895,42	3241,50
895,86	3207,50
896,30	3266,00
896,73	3304,25
897,17	3220,75
897,60	3204,75
898,04	3230,00
898,48	3277,00
898,91	3362,00
899,35	3210,50
899,78	3223,25
900,22	3228,00
900,66	3328,50
901,09	3310,75
901,53	3230,25
901,96	3406,00
902,40	3426,25
902,84	3217,00
903,27	3250,25
903,71	3380,50
904,14	3204,00
904,58	3277,25
905,01	3222,00
905,45	3246,75
905,88	3180,25
906,32	3374,50
906,76	3271,00
907,19	3344,00
907,63	3296,50
908,06	3246,25
908,50	3308,75
908,93	3400,75
909,37	3257,50
909,80	3192,50
910,24	3281,00
910,67	3276,25
911,11	3257,50
911,54	3213,25
911,98	3262,50
912,41	3273,25
912,85	3252,00
913,28	3313,00
913,72	3291,00
914,15	3235,75
914,59	3197,50
915,02	3212,25
915,46	3250,50
915,89	3224,75
916,33	3323,75
916,76	3217,75
917,20	3342,25
917,63	3233,00
918,07	3339,25
918,50	3215,00
918,94	3265,25
919,37	3266,50
919,81	3313,25
920,24	3324,50
920,67	3283,25
921,11	3398,00
921,54	3296,75
921,98	3226,25
922,41	3197,50
922,85	3182,25
923,28	3278,50
923,72	3393,00
924,15	3317,25
924,58	3186,25
925,02	3321,75
925,45	3199,50
925,89	3293,50
926,32	3447,50
926,75	3251,00
927,19	3321,75
927,62	3166,50
928,06	3435,25
928,49	3261,50
928,92	3207,75
929,36	3343,50
929,79	3243,00
930,23	3303,00
930,66	3349,50
931,09	3229,75
931,53	3297,75
931,96	3178,00
932,39	3399,00
932,83	3355,00
933,26	3471,75
933,70	3248,25
934,13	3338,75
934,56	3326,75
935,00	3310,75
935,43	3301,00
935,86	3205,00
936,30	3243,75
936,73	3230,50
937,16	3299,25
937,60	3219,75
938,03	3335,00
938,46	3210,25
938,90	3236,75
939,33	3319,75
939,76	3204,50
940,19	3279,50
940,63	3338,25
941,06	3417,50
941,49	3245,25
941,93	3318,25
942,36	3214,00
942,79	3242,25
943,23	3318,25
943,66	3195,25
944,09	3178,25
944,52	3316,50
944,96	3255,50
945,39	3298,75
945,82	3261,75
946,26	3280,75
946,69	3291,50
947,12	3351,00
947,55	3250,50
947,99	3255,00
948,42	3312,00
948,85	3178,50
949,28	3186,00
949,72	3195,00
950,15	3471,25
950,58	3364,00
951,01	3241,00
951,45	3241,50
951,88	3301,25
952,31	3184,00
952,74	3327,50
953,17	3242,25
953,61	3410,75
954,04	3191,50
954,47	3217,25
954,90	3252,00
955,33	3225,75
955,77	3256,25
956,20	3308,75
956,63	3185,75
957,06	3319,25
957,49	3496,25
957,93	3183,50
958,36	3305,00
958,79	3273,75
959,22	3238,25
959,65	3227,50
960,08	3232,75
960,52	3153,00
960,95	3247,00
961,38	3324,00
961,81	3308,75
962,24	3327,25
962,67	3299,75
963,11	3228,75
963,54	3290,00
963,97	3225,75
964,40	3249,75
964,83	3244,75
965,26	3212,75
965,69	3334,25
966,13	3238,25
966,56	3232,75
966,99	3303,50
967,42	3223,75
967,85	3221,00
968,28	3352,00
968,71	3588,00
969,14	3328,25
969,57	3263,75
970,01	3292,00
970,44	3197,00
970,87	3234,75
971,30	3294,00
971,73	3229,75
972,16	3264,00
972,59	3160,75
973,02	3215,50
973,45	3253,50
973,88	3300,25
974,31	3248,00
974,74	3312,50
975,17	3279,25
975,61	3224,75
976,04	3219,00
976,47	3233,25
976,90	3274,50
977,33	3193,75
977,76	3301,75
978,19	3254,50
978,62	3244,25
979,05	3241,25
979,48	3243,25
979,91	3329,25
980,34	3310,75
980,77	3241,50
981,20	3282,75
981,63	3334,25
982,06	3242,50
982,49	3244,50
982,92	3215,50
983,35	3239,25
983,78	3233,00
984,21	3319,50
984,64	3312,50
985,07	3193,75
985,50	3152,75
985,93	3236,75
986,36	3293,00
986,79	3237,50
987,22	3207,25
987,65	3321,25
988,08	3625,00
988,51	3522,25
988,94	3279,50
989,37	3265,00
989,80	3270,50
990,23	3232,25
990,66	3279,50
991,09	3254,75
991,51	3275,50
991,94	3392,75
992,37	3236,25
992,80	3205,50
993,23	3255,75
993,66	3198,25
994,09	3229,50
994,52	3287,00
994,95	3326,25
995,38	3257,25
995,81	3267,25
996,24	3173,25
996,67	3189,50
997,09	3139,00
997,52	3344,50
997,95	3319,00
998,38	3227,75
998,81	3296,00
999,24	3186,50
999,67	3389,50
1000,10	3244,25
1000,53	3262,50
1000,95	3348,25
1001,38	3221,50
1001,81	3278,50
1002,24	3308,50
1002,67	3262,25
1003,10	3284,50
1003,53	3276,25
1003,95	3316,25
1004,38	3208,00
1004,81	3281,50
1005,24	3290,25
1005,67	3365,75
1006,10	3266,50
1006,52	3186,75
1006,95	3301,00
1007,38	3260,25
1007,81	3215,75
1008,24	3167,50
1008,67	3236,75
1009,09	3220,50
1009,52	3566,75
1009,95	3329,75
1010,38	3338,50
1010,81	3299,25
1011,23	3297,50
1011,66	3350,25
1012,09	3256,75
1012,52	3323,50
1012,95	3281,00
1013,37	3277,00
1013,80	3298,50
1014,23	3198,75
1014,66	3363,50
1015,08	3163,00
1015,51	3322,75
1015,94	3227,25
1016,37	3286,75
1016,80	3190,25
1017,22	3295,75
1017,65	3235,75
1018,08	3251,00
1018,51	3233,75
1018,93	3164,75
1019,36	3493,50
1019,79	3341,50
1020,21	3313,50
1020,64	3241,50
1021,07	3264,50
1021,50	3287,75
1021,92	3277,25
1022,35	3312,25
1022,78	3254,25
1023,21	3537,75
1023,63	3340,50
1024,06	3331,75
1024,49	3309,50
1024,91	3282,75
1025,34	3307,00
1025,77	3295,00
1026,19	3214,75
1026,62	3215,75
1027,05	3455,50
1027,47	3309,75
1027,90	3291,25
1028,33	3260,50
1028,75	3296,00
1029,18	3214,50
1029,61	3427,25
1030,03	3281,00
1030,46	3270,75
1030,89	3305,25
1031,31	3374,00
1031,74	3204,50
1032,17	3267,50
1032,59	3319,50
1033,02	3265,25
1033,45	3328,25
1033,87	3221,00
1034,30	3218,75
1034,73	3299,00
1035,15	3325,00
1035,58	3233,25
1036,00	3380,00
1036,43	3227,00
1036,86	3231,25
1037,28	3280,00
1037,71	3186,75
1038,13	3334,25
1038,56	3325,50
1038,99	3300,00
1039,41	3361,75
1039,84	3388,25
1040,26	3247,25
1040,69	3273,00
1041,11	3300,00
1041,54	3256,75
1041,97	3357,75
1042,39	3377,25
1042,82	3309,50
1043,24	3332,25
1043,67	3265,75
1044,09	3327,00
1044,52	3231,00
1044,95	3270,75
1045,37	3225,75
1045,80	3185,25
1046,22	3286,00
1046,65	3315,00
1047,07	3206,50
1047,50	3297,50
1047,92	3326,75
1048,35	3219,75
1048,77	3345,25
1049,20	3305,00
1049,62	3338,75
1050,05	3261,00
1050,47	3251,25
1050,90	3303,00
1051,32	3323,00
1051,75	3383,50
1052,17	3355,00
1052,60	3279,50
1053,02	3326,00
1053,45	3161,00
1053,87	3266,25
1054,30	3178,50
1054,72	3259,75
1055,15	3220,00
1055,57	3294,50
1056,00	3314,50
1056,42	3423,25
1056,85	3347,75
1057,27	3358,00
1057,70	3289,25
1058,12	3568,50
1058,54	3233,75
1058,97	3307,75
1059,39	3313,75
1059,82	3294,75
1060,24	3252,50
1060,67	3247,50
1061,09	3332,00
1061,51	3281,75
1061,94	3238,25
1062,36	3351,75
1062,79	3399,75
1063,21	3291,50
1063,64	3253,25
1064,06	3204,00
1064,48	3349,25
1064,91	3342,25
1065,33	3257,00
1065,76	3203,75
1066,18	3200,50
1066,60	3338,00
1067,03	3285,25
1067,45	3276,75
1067,87	3300,25
1068,30	3257,50
1068,72	3410,00
1069,15	3283,25
1069,57	3240,00
1069,99	3191,75
1070,42	3354,75
1070,84	3347,75
1071,26	3351,50
1071,69	3244,75
1072,11	3330,00
1072,53	3239,50
1072,96	3215,25
1073,38	3192,75
1073,80	3291,25
1074,23	3247,25
1074,65	3214,75
1075,07	3239,25
1075,50	3267,75
1075,92	3305,50
1076,34	3233,00
1076,77	3217,25
1077,19	3262,00
1077,61	3316,75
1078,04	3245,25
1078,46	3316,25
1078,88	3363,50
1079,30	3174,75
1079,73	3291,50
1080,15	3237,50
1080,57	3248,75
1081,00	3311,75
1081,42	3271,75
1081,84	3247,75
1082,26	3294,75
1082,69	3252,75
1083,11	3252,50
1083,53	3265,50
1083,95	3297,75
1084,38	3338,25
1084,80	3272,50
1085,22	3262,75
1085,64	3332,25
1086,07	3215,75
1086,49	3243,25
1086,91	3305,25
1087,33	3166,00
1087,76	3328,75
1088,18	5633,50
1088,60	3287,00
1089,02	3213,50
1089,45	3255,00
1089,87	3238,75
1090,29	3366,25
1090,71	3244,00
1091,13	3198,00
1091,56	3277,75
1091,98	3244,75
1092,40	3217,50
1092,82	3265,75
1093,24	3230,00
1093,66	3254,50
1094,09	3265,25
1094,51	3267,00
1094,93	3259,00
1095,35	3282,75
1095,77	3231,00
1096,19	3270,50
1096,62	3307,00
1097,04	3196,50
1097,46	3262,00
1097,88	3230,50
1098,30	3312,00
1098,72	3292,25
1099,15	3312,75
1099,57	3240,75
1099,99	3234,00
1100,41	3228,75
1100,83	3237,25
1101,25	3216,75
1101,67	3270,00
1102,09	3179,00
1102,52	3238,25
1102,94	3248,25
1103,36	3235,00
1103,78	3287,50
1104,20	3224,00
1104,62	3358,75
1105,04	3140,25
1105,46	3283,75
1105,88	3256,00
1106,30	3217,75
1106,73	3247,75
1107,15	3134,75
1107,57	3178,75
1107,99	3326,75
1108,41	3179,00
1108,83	3281,00
1109,25	3287,25
1109,67	3285,75
1110,09	3149,25
1110,51	3216,75
1110,93	3162,00
1111,35	3195,50
1111,77	3166,25
1112,19	3169,50
1112,61	3140,25
1113,03	3208,00
1113,45	3174,00
1113,87	3176,25
1114,29	3228,25
1114,71	3253,25
1115,13	3182,25
1115,55	3214,25
1115,98	3195,75
1116,40	3243,75
1116,82	3263,00
1117,24	3207,00
1117,66	3167,50
1118,08	2161,50
1118,50	2184,75
1118,91	2183,25
1119,33	2182,75
>>>>>End Processed Spectral Data<<<<<
