SpectraSuite Data File
++++++++++++++++++++++++++++++++++++
Date: Wed Nov 27 16:06:15 EET 2013
User: OO Maya
Dark Spectrum Present: No
Reference Spectrum Present: No
Number of Sampled Component Spectra: 1
Spectrometers: MAYP11278
Integration Time (usec): 1300000 (MAYP11278)
Spectra Averaged: 10 (MAYP11278)
Boxcar Smoothing: 0 (MAYP11278)
Correct for Electrical Dark: No (MAYP11278)
Strobe/Lamp Enabled: No (MAYP11278)
Correct for Detector Non-linearity: No (MAYP11278)
Correct for Stray Light: No (MAYP11278)
Number of Pixels in Processed Spectrum: 2068
>>>>>Begin Processed Spectral Data<<<<<
188,05	2285,70
188,53	2208,20
189,01	2176,50
189,49	2177,30
189,96	3249,20
190,44	3339,40
190,92	3317,40
191,40	3373,60
191,88	3435,90
192,36	3348,50
192,83	3318,10
193,31	3268,70
193,79	3346,00
194,27	3326,20
194,75	3386,00
195,23	3337,50
195,70	3440,10
196,18	3320,70
196,66	3369,80
197,14	3597,00
197,62	3359,60
198,09	3293,20
198,57	3345,60
199,05	3324,70
199,53	3392,50
200,01	3443,50
200,48	3341,20
200,96	3347,30
201,44	3444,00
201,92	3430,20
202,39	3431,80
202,87	3314,40
203,35	3411,70
203,83	3320,90
204,31	3449,50
204,78	3498,30
205,26	3339,40
205,74	3346,50
206,22	3520,90
206,69	3354,00
207,17	3420,70
207,65	3614,90
208,13	3401,60
208,60	3443,00
209,08	3361,50
209,56	3466,90
210,04	3434,70
210,51	3386,40
210,99	3387,90
211,47	3438,50
211,94	3384,80
212,42	3347,40
212,90	3566,30
213,38	3438,40
213,85	3372,20
214,33	3568,40
214,81	3424,80
215,29	3521,00
215,76	3426,40
216,24	3459,30
216,72	3460,20
217,19	3438,40
217,67	3350,90
218,15	3393,40
218,62	3516,80
219,10	3296,30
219,58	3348,20
220,05	3353,20
220,53	3381,20
221,01	3780,00
221,49	3367,70
221,96	3475,70
222,44	3355,50
222,92	3467,80
223,39	3385,90
223,87	3471,00
224,35	3395,10
224,82	3376,80
225,30	3336,30
225,78	3394,60
226,25	3353,10
226,73	3408,40
227,21	3512,30
227,68	3402,40
228,16	3449,80
228,63	3468,70
229,11	3462,20
229,59	3395,80
230,06	3409,10
230,54	3375,70
231,02	3474,30
231,49	3524,00
231,97	3425,40
232,45	3426,60
232,92	3338,70
233,40	3424,20
233,87	3438,20
234,35	3738,60
234,83	3445,10
235,30	3362,00
235,78	3363,80
236,25	3333,30
236,73	3475,00
237,21	3606,90
237,68	3382,10
238,16	3440,60
238,63	3444,90
239,11	3422,70
239,59	3416,30
240,06	3319,30
240,54	3471,50
241,01	3532,40
241,49	3434,10
241,96	3396,10
242,44	3497,50
242,92	3527,30
243,39	3317,90
243,87	3378,90
244,34	3494,40
244,82	3542,60
245,29	3408,30
245,77	3564,40
246,24	3535,80
246,72	3376,60
247,20	3429,70
247,67	3436,60
248,15	3447,60
248,62	3489,20
249,10	3313,20
249,57	3440,60
250,05	3507,50
250,52	3476,60
251,00	3561,20
251,47	3460,20
251,95	3627,70
252,42	3579,60
252,90	3415,50
253,37	3548,60
253,85	3463,90
254,32	3423,20
254,80	3469,50
255,27	3488,30
255,75	3515,40
256,22	3399,40
256,70	3472,00
257,17	3488,40
257,65	3549,50
258,12	3729,50
258,60	3463,10
259,07	3418,90
259,55	3484,40
260,02	3513,60
260,50	3617,00
260,97	3441,20
261,45	3417,20
261,92	3572,50
262,40	3388,60
262,87	3479,90
263,35	3451,30
263,82	3348,50
264,30	3527,80
264,77	3547,30
265,25	3436,80
265,72	3479,80
266,19	3486,70
266,67	3535,40
267,14	3436,50
267,62	3443,20
268,09	3494,30
268,57	3508,20
269,04	3326,90
269,51	3389,90
269,99	3435,10
270,46	3506,00
270,94	3552,10
271,41	3437,40
271,89	3475,50
272,36	3374,00
272,83	3370,20
273,31	3313,20
273,78	3467,00
274,26	3785,90
274,73	3522,80
275,20	3540,70
275,68	3415,30
276,15	3446,80
276,63	3512,10
277,10	3551,00
277,57	3386,30
278,05	3463,70
278,52	3387,90
279,00	3892,40
279,47	3438,50
279,94	3437,50
280,42	3845,80
280,89	3559,30
281,36	3775,00
281,84	3426,20
282,31	3594,50
282,78	3462,70
283,26	3478,80
283,73	3529,30
284,21	3423,90
284,68	3408,30
285,15	3564,00
285,63	3491,40
286,10	3527,80
286,57	3518,90
287,05	3410,20
287,52	3536,00
287,99	3659,90
288,47	3485,10
288,94	3564,60
289,41	3364,10
289,89	3650,70
290,36	3461,40
290,83	3554,80
291,30	3480,90
291,78	3597,70
292,25	3727,90
292,72	3472,70
293,20	3642,80
293,67	3512,80
294,14	3594,60
294,62	3590,20
295,09	3505,20
295,56	3575,90
296,03	3592,30
296,51	3734,90
296,98	3707,80
297,45	3630,40
297,93	3615,00
298,40	3620,30
298,87	3563,20
299,34	3734,60
299,82	3582,60
300,29	3640,80
300,76	3562,10
301,23	3699,00
301,71	3710,20
302,18	3702,70
302,65	3540,30
303,12	3696,30
303,60	3737,70
304,07	3581,90
304,54	3584,50
305,01	3580,10
305,49	3683,70
305,96	3709,30
306,43	3677,40
306,90	3729,70
307,38	3639,90
307,85	3645,60
308,32	3696,80
308,79	3657,40
309,27	3773,90
309,74	3791,90
310,21	3714,20
310,68	3713,50
311,15	3727,90
311,63	3665,50
312,10	3798,80
312,57	3721,80
313,04	3896,30
313,51	3666,00
313,99	3695,90
314,46	3730,60
314,93	3679,00
315,40	3668,90
315,87	3820,50
316,34	3776,20
316,82	3745,20
317,29	3776,60
317,76	3738,50
318,23	3980,20
318,70	3712,80
319,17	3711,40
319,65	3612,50
320,12	3758,10
320,59	3871,90
321,06	3791,10
321,53	3697,10
322,00	3572,40
322,48	3628,80
322,95	3862,70
323,42	3685,80
323,89	3895,10
324,36	3581,10
324,83	3687,20
325,30	3644,50
325,78	3652,00
326,25	3650,80
326,72	3635,90
327,19	3726,00
327,66	3691,10
328,13	3685,60
328,60	3680,40
329,07	3641,50
329,54	3615,50
330,02	3616,40
330,49	3599,80
330,96	3726,50
331,43	3685,70
331,90	3808,70
332,37	3566,30
332,84	3804,10
333,31	3684,00
333,78	3675,60
334,25	3726,50
334,72	3635,80
335,20	3669,80
335,67	3956,90
336,14	3519,90
336,61	3603,50
337,08	3589,70
337,55	3653,00
338,02	3604,20
338,49	3598,70
338,96	3771,10
339,43	3683,50
339,90	3533,50
340,37	3552,70
340,84	3522,00
341,31	3641,70
341,78	3672,00
342,25	3541,80
342,72	3602,30
343,19	3666,50
343,67	3605,60
344,14	3560,80
344,61	3577,50
345,08	3525,30
345,55	3584,70
346,02	3637,40
346,49	3539,30
346,96	3524,60
347,43	3725,40
347,90	3535,20
348,37	3667,40
348,84	3583,70
349,31	3473,80
349,78	3586,20
350,25	3652,60
350,72	3576,80
351,19	3510,30
351,66	3601,40
352,13	3733,20
352,60	3594,00
353,07	3550,10
353,54	3576,70
354,01	3636,10
354,48	3599,80
354,94	3634,30
355,41	3586,80
355,88	3716,50
356,35	3511,70
356,82	3724,70
357,29	3513,60
357,76	3769,20
358,23	3634,10
358,70	3491,70
359,17	3485,50
359,64	3543,10
360,11	3542,60
360,58	3638,90
361,05	3683,60
361,52	3529,70
361,99	3540,90
362,46	3564,20
362,93	3534,40
363,39	3563,20
363,86	3781,00
364,33	3616,90
364,80	3519,30
365,27	3617,90
365,74	3513,70
366,21	3474,20
366,68	3784,40
367,15	3550,80
367,62	5011,50
368,09	3406,70
368,55	3469,30
369,02	3619,00
369,49	3456,20
369,96	3623,00
370,43	3566,50
370,90	3511,40
371,37	3519,90
371,84	3583,50
372,31	3486,80
372,77	3426,30
373,24	3536,30
373,71	3556,50
374,18	3439,00
374,65	3466,20
375,12	3553,80
375,59	3407,50
376,05	3679,10
376,52	3488,60
376,99	3458,00
377,46	3438,10
377,93	3551,40
378,40	3551,50
378,86	3550,70
379,33	3530,00
379,80	3535,00
380,27	3573,30
380,74	3665,80
381,21	3540,70
381,67	3731,20
382,14	3841,10
382,61	3456,80
383,08	3570,60
383,55	3517,20
384,02	3609,90
384,48	3558,10
384,95	4026,60
385,42	3542,90
385,89	3504,60
386,36	3517,10
386,82	3692,30
387,29	3474,50
387,76	3436,70
388,23	3613,80
388,69	3579,80
389,16	3650,80
389,63	3481,80
390,10	3582,60
390,57	3576,10
391,03	3578,30
391,50	3585,60
391,97	3566,60
392,44	3576,70
392,90	3530,00
393,37	3518,30
393,84	3766,10
394,31	3545,50
394,77	3652,70
395,24	3504,70
395,71	3613,50
396,18	4030,60
396,64	3471,50
397,11	3626,10
397,58	3649,70
398,05	3513,70
398,51	3576,10
398,98	3533,40
399,45	3508,80
399,92	3702,60
400,38	3512,80
400,85	3613,50
401,32	3586,10
401,78	3666,10
402,25	3659,10
402,72	3645,00
403,18	3581,30
403,65	3802,40
404,12	3658,40
404,59	3817,00
405,05	3862,10
405,52	3827,70
405,99	3665,90
406,45	3842,10
406,92	3817,40
407,39	4009,40
407,85	3829,80
408,32	3884,90
408,79	3954,60
409,25	3850,90
409,72	4066,40
410,19	3947,10
410,65	4153,50
411,12	4061,40
411,59	4297,60
412,05	4213,20
412,52	4202,30
412,99	4454,80
413,45	4478,90
413,92	4632,50
414,39	4764,70
414,85	4998,00
415,32	4962,50
415,78	5267,80
416,25	5334,00
416,72	5507,50
417,18	5838,60
417,65	5951,80
418,12	6135,10
418,58	6423,80
419,05	6718,30
419,51	7068,10
419,98	7290,80
420,45	7775,10
420,91	8065,60
421,38	8588,10
421,84	9008,90
422,31	9650,60
422,78	10118,10
423,24	10811,10
423,71	11486,30
424,17	12292,90
424,64	13031,50
425,11	13938,00
425,57	14800,70
426,04	15914,10
426,50	16859,70
426,97	18205,70
427,43	19384,10
427,90	20787,20
428,37	22041,40
428,83	23790,30
429,30	25407,40
429,76	27167,50
430,23	29139,70
430,69	31441,00
431,16	33161,10
431,62	35613,90
432,09	38172,70
432,55	40643,50
433,02	43339,00
433,48	46207,20
433,95	49374,40
434,42	52727,50
434,88	56135,80
435,35	59724,40
435,81	63551,80
436,28	64000,00
436,74	64000,00
437,21	64000,00
437,67	64000,00
438,14	64000,00
438,60	64000,00
439,07	64000,00
439,53	64000,00
440,00	64000,00
440,46	64000,00
440,93	64000,00
441,39	64000,00
441,86	64000,00
442,32	64000,00
442,79	64000,00
443,25	64000,00
443,72	64000,00
444,18	64000,00
444,64	64000,00
445,11	64000,00
445,57	64000,00
446,04	64000,00
446,50	64000,00
446,97	64000,00
447,43	64000,00
447,90	64000,00
448,36	64000,00
448,83	64000,00
449,29	64000,00
449,75	64000,00
450,22	64000,00
450,68	64000,00
451,15	64000,00
451,61	64000,00
452,08	64000,00
452,54	64000,00
453,00	64000,00
453,47	64000,00
453,93	64000,00
454,40	64000,00
454,86	64000,00
455,32	64000,00
455,79	64000,00
456,25	64000,00
456,72	64000,00
457,18	64000,00
457,64	64000,00
458,11	64000,00
458,57	64000,00
459,04	64000,00
459,50	64000,00
459,96	64000,00
460,43	64000,00
460,89	64000,00
461,36	64000,00
461,82	64000,00
462,28	64000,00
462,75	64000,00
463,21	64000,00
463,67	64000,00
464,14	64000,00
464,60	64000,00
465,06	64000,00
465,53	64000,00
465,99	64000,00
466,45	64000,00
466,92	64000,00
467,38	64000,00
467,84	64000,00
468,31	64000,00
468,77	64000,00
469,23	64000,00
469,70	64000,00
470,16	64000,00
470,62	64000,00
471,09	64000,00
471,55	64000,00
472,01	64000,00
472,48	64000,00
472,94	64000,00
473,40	64000,00
473,87	64000,00
474,33	64000,00
474,79	64000,00
475,25	64000,00
475,72	64000,00
476,18	64000,00
476,64	64000,00
477,11	64000,00
477,57	64000,00
478,03	64000,00
478,49	64000,00
478,96	64000,00
479,42	64000,00
479,88	64000,00
480,35	64000,00
480,81	64000,00
481,27	64000,00
481,73	64000,00
482,20	64000,00
482,66	64000,00
483,12	64000,00
483,58	64000,00
484,05	64000,00
484,51	63365,60
484,97	60977,60
485,43	58768,10
485,89	56573,50
486,36	54679,00
486,82	52687,90
487,28	50998,20
487,74	49101,20
488,21	47316,90
488,67	45659,20
489,13	44110,80
489,59	42530,30
490,05	41082,70
490,52	39385,50
490,98	38036,60
491,44	36506,70
491,90	35214,60
492,36	33841,00
492,83	32777,80
493,29	31446,80
493,75	30153,10
494,21	28956,00
494,67	27874,50
495,14	26836,10
495,60	25833,20
496,06	24923,10
496,52	23926,00
496,98	23117,60
497,44	22409,50
497,91	21572,20
498,37	20597,20
498,83	19895,90
499,29	19211,10
499,75	18821,60
500,21	17931,30
500,67	17300,40
501,14	16765,30
501,60	16211,30
502,06	15775,40
502,52	15264,60
502,98	14759,00
503,44	14297,90
503,90	13924,50
504,37	13460,40
504,83	13151,40
505,29	12758,10
505,75	12269,30
506,21	11993,70
506,67	11736,50
507,13	11306,20
507,59	11108,70
508,05	10741,00
508,51	10386,70
508,98	10069,60
509,44	9761,40
509,90	9594,70
510,36	9361,50
510,82	9080,80
511,28	9012,90
511,74	8805,10
512,20	8416,20
512,66	8136,20
513,12	8021,30
513,58	7942,00
514,04	7564,30
514,51	7625,20
514,97	7515,00
515,43	7105,00
515,89	7075,10
516,35	7012,20
516,81	6874,00
517,27	6894,30
517,73	6585,10
518,19	6424,60
518,65	6673,90
519,11	6234,20
519,57	6057,40
520,03	5901,00
520,49	5854,00
520,95	5865,70
521,41	5781,40
521,87	5719,90
522,33	5595,00
522,79	5410,60
523,25	5622,30
523,71	5438,40
524,17	5245,90
524,63	5346,00
525,09	5237,00
525,55	5188,40
526,01	5185,20
526,47	5026,00
526,93	4941,80
527,39	4896,60
527,85	4813,60
528,31	4873,00
528,77	4807,40
529,23	4692,40
529,69	4601,90
530,15	4674,00
530,61	4643,30
531,07	4460,70
531,53	4615,50
531,99	4489,10
532,45	4460,50
532,91	4421,90
533,37	4426,00
533,83	4336,30
534,29	4241,30
534,75	4285,10
535,21	4211,80
535,67	4261,90
536,12	4177,70
536,58	4238,20
537,04	4097,80
537,50	4202,80
537,96	4114,30
538,42	4115,10
538,88	4248,20
539,34	4121,70
539,80	4572,00
540,26	3928,50
540,72	4182,40
541,18	4012,20
541,63	3884,40
542,09	4022,70
542,55	3989,00
543,01	3903,60
543,47	4202,00
543,93	3829,70
544,39	4104,00
544,85	3975,60
545,31	3859,30
545,76	3838,90
546,22	3958,50
546,68	3865,60
547,14	3872,10
547,60	3891,60
548,06	3835,60
548,52	3799,60
548,98	3786,40
549,43	3728,50
549,89	3992,30
550,35	3747,50
550,81	3670,20
551,27	3799,70
551,73	3758,50
552,19	3932,00
552,64	3761,90
553,10	3672,90
553,56	3787,20
554,02	3695,50
554,48	3644,60
554,93	3730,50
555,39	3718,60
555,85	3882,90
556,31	3712,60
556,77	3807,70
557,23	3564,90
557,68	3716,60
558,14	3886,10
558,60	3638,50
559,06	3642,60
559,52	3596,60
559,97	3594,10
560,43	3584,10
560,89	3656,90
561,35	3632,70
561,81	3642,20
562,26	3613,60
562,72	3576,70
563,18	3634,20
563,64	3755,70
564,09	3533,30
564,55	3651,40
565,01	3585,60
565,47	3597,80
565,92	3625,30
566,38	3712,20
566,84	3580,40
567,30	3540,10
567,75	3609,10
568,21	3687,90
568,67	3547,40
569,13	3590,20
569,58	3669,30
570,04	3599,90
570,50	3590,40
570,96	3649,20
571,41	3654,70
571,87	3588,00
572,33	3604,70
572,78	3620,60
573,24	3523,40
573,70	3545,50
574,16	3583,80
574,61	3694,80
575,07	3643,90
575,53	3483,90
575,98	3600,30
576,44	3415,50
576,90	3679,00
577,36	3542,90
577,81	3531,60
578,27	3474,00
578,73	3693,90
579,18	3572,00
579,64	3506,10
580,10	3576,50
580,55	3595,70
581,01	3544,70
581,47	3556,90
581,92	3579,70
582,38	3542,70
582,84	3440,00
583,29	3545,40
583,75	3582,20
584,21	3530,40
584,66	3616,00
585,12	3488,30
585,57	3810,70
586,03	3521,80
586,49	3530,90
586,94	3523,80
587,40	3530,30
587,86	3622,10
588,31	3456,70
588,77	3576,80
589,22	3536,10
589,68	3474,40
590,14	3580,00
590,59	3607,80
591,05	3499,90
591,51	3423,00
591,96	3654,00
592,42	3490,30
592,87	3560,70
593,33	3516,30
593,78	3617,20
594,24	3518,50
594,70	3518,40
595,15	3649,20
595,61	3497,90
596,06	3451,30
596,52	3651,30
596,98	3599,20
597,43	3646,00
597,89	3524,10
598,34	3435,70
598,80	3530,20
599,25	3647,00
599,71	3468,90
600,16	3580,10
600,62	3626,10
601,08	3577,40
601,53	3588,00
601,99	3426,60
602,44	3799,90
602,90	3495,30
603,35	3521,60
603,81	3405,70
604,26	3395,30
604,72	3567,60
605,17	3477,80
605,63	3561,90
606,08	3538,50
606,54	3397,10
606,99	3514,70
607,45	3487,00
607,90	3507,70
608,36	3585,70
608,81	3514,20
609,27	3743,80
609,72	3591,70
610,18	3500,80
610,63	3468,10
611,09	3526,40
611,54	3420,60
612,00	3677,10
612,45	3562,10
612,91	3526,20
613,36	3842,30
613,82	3391,20
614,27	3402,90
614,73	3412,90
615,18	3413,90
615,64	3498,30
616,09	3503,50
616,54	3440,50
617,00	3487,10
617,45	3497,20
617,91	3577,10
618,36	3459,20
618,82	3471,60
619,27	3486,20
619,72	3557,00
620,18	3490,30
620,63	3576,80
621,09	3599,80
621,54	3486,00
622,00	3584,40
622,45	3632,50
622,90	3613,90
623,36	3441,00
623,81	3457,50
624,27	3604,90
624,72	3421,70
625,17	3491,60
625,63	3528,30
626,08	3426,80
626,54	3479,60
626,99	3524,80
627,44	3428,10
627,90	3579,30
628,35	3569,70
628,81	3365,10
629,26	3491,90
629,71	3518,20
630,17	3437,80
630,62	3553,60
631,07	3487,50
631,53	3562,30
631,98	3531,00
632,43	3610,00
632,89	3445,40
633,34	3467,70
633,79	3441,30
634,25	3441,90
634,70	3421,60
635,15	3479,80
635,61	3448,50
636,06	3399,30
636,51	3495,10
636,97	3473,00
637,42	3420,90
637,87	3559,80
638,33	3585,00
638,78	3456,50
639,23	3476,00
639,69	3409,10
640,14	3363,00
640,59	3520,90
641,05	3586,80
641,50	3382,60
641,95	3447,20
642,40	3459,90
642,86	3378,00
643,31	3443,20
643,76	3532,30
644,22	3437,20
644,67	3415,20
645,12	3459,80
645,57	3403,90
646,03	3470,40
646,48	3485,10
646,93	3516,70
647,38	3543,80
647,84	3490,90
648,29	3500,40
648,74	3390,70
649,19	3588,80
649,65	3528,70
650,10	3892,30
650,55	3392,60
651,00	3409,60
651,46	3420,10
651,91	3499,40
652,36	3404,70
652,81	3472,30
653,27	3438,50
653,72	3406,20
654,17	3480,50
654,62	3503,30
655,07	3443,60
655,53	3399,50
655,98	3544,20
656,43	3411,60
656,88	3477,50
657,33	3521,20
657,79	3539,90
658,24	3412,30
658,69	3482,90
659,14	3391,50
659,59	3910,90
660,05	3430,40
660,50	3585,90
660,95	3448,10
661,40	3399,90
661,85	3461,90
662,30	3390,00
662,76	3328,10
663,21	3497,20
663,66	3441,50
664,11	3418,00
664,56	3450,10
665,01	3382,50
665,47	3490,50
665,92	3373,30
666,37	3487,70
666,82	3482,20
667,27	3725,00
667,72	3586,80
668,17	3391,30
668,62	3507,60
669,08	3387,30
669,53	3681,70
669,98	3323,50
670,43	3400,70
670,88	3567,80
671,33	3463,60
671,78	3612,70
672,23	3720,50
672,69	3458,40
673,14	3462,30
673,59	3568,80
674,04	3794,80
674,49	3477,10
674,94	3498,70
675,39	3349,90
675,84	3361,30
676,29	3467,60
676,74	3436,90
677,19	3433,50
677,64	3449,80
678,10	3725,40
678,55	3422,20
679,00	3430,40
679,45	3495,70
679,90	3410,30
680,35	3451,50
680,80	3457,90
681,25	3313,80
681,70	3311,20
682,15	3430,60
682,60	3462,30
683,05	3513,20
683,50	3524,40
683,95	3469,00
684,40	3572,00
684,85	3515,30
685,30	3477,50
685,75	3494,70
686,20	3439,10
686,65	3380,60
687,10	3480,00
687,55	3428,80
688,00	3479,80
688,45	3440,80
688,90	3742,40
689,35	3530,60
689,80	3335,50
690,25	3444,50
690,70	3437,50
691,15	3331,10
691,60	3457,80
692,05	3353,20
692,50	3465,10
692,95	3453,80
693,40	3513,10
693,85	3522,30
694,30	3468,20
694,75	3485,00
695,20	3929,30
695,65	3474,70
696,10	3474,10
696,55	3666,50
697,00	3452,80
697,45	3418,30
697,90	3505,10
698,35	3412,70
698,80	3526,70
699,24	3529,20
699,69	3401,50
700,14	3444,10
700,59	3514,50
701,04	3537,10
701,49	3877,10
701,94	3371,90
702,39	3608,30
702,84	3399,40
703,29	3433,30
703,74	3494,40
704,19	3444,10
704,63	3426,90
705,08	3570,80
705,53	3552,80
705,98	3554,80
706,43	3374,40
706,88	3526,30
707,33	3479,00
707,78	3449,20
708,22	3511,10
708,67	3547,50
709,12	3482,60
709,57	3426,50
710,02	3465,00
710,47	3470,70
710,92	3405,70
711,37	3515,30
711,81	3486,40
712,26	3474,40
712,71	3409,80
713,16	3671,50
713,61	3468,30
714,06	3488,20
714,50	3606,60
714,95	3564,40
715,40	3475,30
715,85	3500,50
716,30	3436,60
716,75	3445,30
717,19	3387,00
717,64	3359,20
718,09	3526,30
718,54	3663,00
718,99	3403,90
719,43	3388,40
719,88	3491,40
720,33	3464,20
720,78	3419,40
721,23	3508,20
721,67	3420,60
722,12	3534,70
722,57	3471,00
723,02	3386,60
723,47	3368,50
723,91	3508,10
724,36	3348,50
724,81	3538,00
725,26	3376,10
725,70	3475,80
726,15	3468,60
726,60	3487,70
727,05	3656,60
727,49	3403,10
727,94	3611,60
728,39	3534,50
728,84	3447,50
729,28	3607,50
729,73	3438,80
730,18	3575,00
730,63	3402,80
731,07	3503,70
731,52	3530,90
731,97	3515,80
732,41	3526,90
732,86	3433,10
733,31	3552,10
733,76	3517,00
734,20	3432,20
734,65	3557,90
735,10	3544,40
735,54	3507,40
735,99	3786,20
736,44	3422,60
736,89	3496,30
737,33	3569,20
737,78	3555,40
738,23	3482,10
738,67	3474,00
739,12	3503,70
739,57	3386,80
740,01	3601,60
740,46	3536,20
740,91	3438,50
741,35	3533,40
741,80	3566,40
742,25	3486,60
742,69	3514,50
743,14	3430,50
743,59	3426,80
744,03	3479,10
744,48	3602,20
744,92	3589,00
745,37	3544,70
745,82	3586,00
746,26	3643,40
746,71	3353,00
747,16	3439,80
747,60	3412,30
748,05	3542,90
748,49	3484,60
748,94	3477,90
749,39	3548,00
749,83	3820,20
750,28	3522,50
750,73	3499,70
751,17	3412,40
751,62	3468,10
752,06	3462,20
752,51	3496,10
752,95	3721,90
753,40	3460,60
753,85	3496,40
754,29	3402,70
754,74	3494,30
755,18	3432,40
755,63	3512,50
756,07	3518,10
756,52	3638,90
756,97	3489,50
757,41	3633,30
757,86	3536,70
758,30	3491,60
758,75	3498,40
759,19	3526,70
759,64	3442,70
760,08	3509,20
760,53	3559,50
760,98	3525,40
761,42	3588,60
761,87	3647,70
762,31	3489,60
762,76	3438,30
763,20	3509,40
763,65	3595,80
764,09	3527,10
764,54	3450,40
764,98	3486,10
765,43	3575,10
765,87	3456,40
766,32	3439,10
766,76	3482,50
767,21	3518,60
767,65	3542,00
768,10	3565,10
768,54	3602,00
768,99	3525,70
769,43	3743,30
769,88	3457,20
770,32	3530,10
770,77	3468,70
771,21	3451,80
771,65	3577,70
772,10	3541,10
772,54	3553,30
772,99	3409,70
773,43	3497,00
773,88	3503,80
774,32	3382,70
774,77	3522,90
775,21	3451,40
775,65	3545,40
776,10	3526,40
776,54	3439,70
776,99	3487,80
777,43	3491,80
777,88	3549,90
778,32	3572,70
778,76	3483,20
779,21	3534,20
779,65	3813,90
780,10	3633,40
780,54	3510,20
780,99	3592,60
781,43	3557,40
781,87	3441,00
782,32	3516,50
782,76	3408,30
783,20	3463,00
783,65	3552,40
784,09	3576,70
784,54	3478,80
784,98	3454,50
785,42	3465,80
785,87	3413,00
786,31	3543,20
786,75	3588,10
787,20	3583,00
787,64	3381,30
788,09	3421,40
788,53	3470,80
788,97	3405,30
789,42	3436,50
789,86	3413,60
790,30	3462,00
790,75	3368,40
791,19	3392,10
791,63	3562,60
792,08	3426,70
792,52	3456,50
792,96	3405,20
793,41	3901,30
793,85	3548,50
794,29	3462,70
794,74	3474,50
795,18	3447,30
795,62	3360,30
796,06	3481,00
796,51	3428,80
796,95	3449,50
797,39	3385,50
797,84	3357,50
798,28	3442,70
798,72	3528,70
799,16	3447,10
799,61	3372,90
800,05	3603,50
800,49	3456,20
800,94	3373,90
801,38	3475,20
801,82	3429,40
802,26	3358,60
802,71	3514,70
803,15	3607,10
803,59	3483,20
804,03	3439,40
804,48	3407,70
804,92	3374,60
805,36	3600,90
805,80	3644,50
806,25	3593,70
806,69	3495,60
807,13	3627,40
807,57	3389,40
808,01	3419,10
808,46	3332,00
808,90	3460,80
809,34	3410,70
809,78	3384,30
810,23	3325,20
810,67	3445,70
811,11	3540,60
811,55	3778,70
811,99	3375,10
812,44	3356,20
812,88	3469,10
813,32	3591,90
813,76	3482,40
814,20	3417,30
814,64	3491,90
815,09	3465,80
815,53	3429,40
815,97	3360,50
816,41	3346,30
816,85	3348,60
817,29	3465,30
817,74	3382,40
818,18	3502,50
818,62	3364,90
819,06	3469,10
819,50	3508,50
819,94	3381,10
820,39	3429,40
820,83	3355,40
821,27	3397,80
821,71	3336,00
822,15	3542,70
822,59	3323,50
823,03	3416,60
823,47	3415,00
823,92	3307,30
824,36	3408,10
824,80	3375,60
825,24	3424,20
825,68	3428,50
826,12	3308,30
826,56	3368,40
827,00	3238,70
827,44	3399,20
827,88	3465,60
828,33	3501,20
828,77	3328,20
829,21	3469,00
829,65	3420,60
830,09	3338,90
830,53	3537,10
830,97	3351,20
831,41	3615,60
831,85	3476,50
832,29	3434,60
832,73	3282,60
833,17	3378,20
833,61	3353,70
834,05	3526,60
834,49	3439,30
834,93	3363,50
835,37	3341,30
835,82	3479,40
836,26	3372,40
836,70	3402,90
837,14	3375,60
837,58	3475,90
838,02	3315,50
838,46	3337,70
838,90	3392,00
839,34	3376,70
839,78	3542,50
840,22	3611,90
840,66	3376,30
841,10	3521,10
841,54	3239,10
841,98	3306,80
842,42	3273,70
842,86	3331,00
843,30	3433,20
843,74	3382,70
844,18	3435,30
844,62	3367,70
845,06	3309,10
845,50	3425,10
845,94	3351,00
846,37	3451,70
846,81	3314,90
847,25	3308,50
847,69	3368,10
848,13	3304,20
848,57	3346,10
849,01	3325,20
849,45	3427,90
849,89	3483,60
850,33	3425,70
850,77	3331,30
851,21	3463,50
851,65	3296,50
852,09	3398,40
852,53	3454,00
852,97	3326,50
853,40	3320,70
853,84	3434,60
854,28	3265,10
854,72	3440,30
855,16	3270,40
855,60	3319,60
856,04	3468,80
856,48	3509,90
856,92	3354,20
857,36	3398,70
857,79	3358,50
858,23	3258,50
858,67	3486,70
859,11	3224,90
859,55	3304,40
859,99	3320,60
860,43	3338,60
860,87	3387,30
861,30	3427,50
861,74	3303,40
862,18	3350,40
862,62	3402,40
863,06	3304,90
863,50	3321,90
863,94	3426,80
864,37	3291,00
864,81	3363,20
865,25	3358,20
865,69	3261,30
866,13	3341,50
866,57	3230,90
867,00	3429,00
867,44	3290,60
867,88	3390,60
868,32	3344,70
868,76	3324,10
869,19	3403,40
869,63	3363,50
870,07	3493,90
870,51	3633,40
870,95	3273,80
871,38	3339,20
871,82	3360,40
872,26	3309,80
872,70	3378,40
873,14	3418,90
873,57	3338,90
874,01	3452,30
874,45	3430,10
874,89	3330,40
875,32	3274,00
875,76	3461,50
876,20	3213,30
876,64	3391,20
877,07	3335,90
877,51	3350,20
877,95	3357,20
878,39	3336,60
878,82	3373,00
879,26	3334,90
879,70	3514,40
880,14	3286,60
880,57	3276,90
881,01	3313,10
881,45	3359,70
881,89	3423,50
882,32	3329,20
882,76	3335,90
883,20	3338,50
883,63	3327,90
884,07	3269,00
884,51	3411,70
884,94	3349,40
885,38	3384,00
885,82	3425,60
886,26	3332,30
886,69	3292,50
887,13	3537,30
887,57	3277,10
888,00	3273,20
888,44	3337,40
888,88	3306,10
889,31	3702,00
889,75	3258,10
890,19	3427,20
890,62	3300,60
891,06	3408,20
891,50	3397,00
891,93	3253,30
892,37	3307,30
892,81	3327,70
893,24	3267,30
893,68	3307,00
894,11	3393,20
894,55	3337,50
894,99	3418,90
895,42	3310,50
895,86	3274,90
896,30	3366,40
896,73	3390,20
897,17	3288,00
897,60	3285,60
898,04	3287,90
898,48	3365,80
898,91	3455,60
899,35	3285,80
899,78	3282,00
900,22	3299,60
900,66	3439,70
901,09	3392,40
901,53	3318,20
901,96	3538,50
902,40	3555,80
902,84	3271,30
903,27	3329,80
903,71	3534,40
904,14	3285,30
904,58	3400,50
905,01	3297,00
905,45	3323,90
905,88	3273,00
906,32	3464,30
906,76	3356,60
907,19	3437,40
907,63	3396,10
908,06	3329,70
908,50	3408,50
908,93	3495,60
909,37	3328,10
909,80	3252,50
910,24	3391,10
910,67	3366,80
911,11	3341,60
911,54	3302,60
911,98	3320,30
912,41	3374,50
912,85	3327,80
913,28	3388,00
913,72	3401,30
914,15	3329,60
914,59	3256,70
915,02	3267,90
915,46	3320,20
915,89	3293,90
916,33	3429,40
916,76	3312,70
917,20	3445,40
917,63	3288,90
918,07	3435,40
918,50	3284,20
918,94	3336,90
919,37	3334,00
919,81	3392,70
920,24	3432,80
920,67	3346,50
921,11	3505,40
921,54	3390,40
921,98	3303,90
922,41	3262,40
922,85	3250,10
923,28	3374,50
923,72	3498,80
924,15	3399,30
924,58	3242,50
925,02	3406,10
925,45	3294,10
925,89	3426,00
926,32	3557,00
926,75	3322,20
927,19	3413,90
927,62	3257,40
928,06	3566,30
928,49	3345,10
928,92	3260,00
929,36	3437,50
929,79	3327,70
930,23	3380,90
930,66	3437,00
931,09	3307,20
931,53	3390,60
931,96	3215,60
932,39	3523,70
932,83	3437,30
933,26	3638,70
933,70	3337,00
934,13	3463,40
934,56	3423,60
935,00	3411,70
935,43	3378,10
935,86	3258,50
936,30	3333,00
936,73	3292,50
937,16	3389,00
937,60	3274,50
938,03	3412,50
938,46	3307,70
938,90	3329,00
939,33	3405,60
939,76	3263,90
940,19	3356,70
940,63	3445,60
941,06	3574,50
941,49	3289,00
941,93	3440,10
942,36	3297,30
942,79	3333,80
943,23	3406,20
943,66	3252,00
944,09	3236,00
944,52	3417,30
944,96	3400,80
945,39	3416,30
945,82	3345,70
946,26	3365,30
946,69	3383,00
947,12	3472,60
947,55	3359,60
947,99	3348,20
948,42	3411,50
948,85	3232,90
949,28	3265,80
949,72	3260,80
950,15	3619,90
950,58	3473,30
951,01	3320,30
951,45	3313,00
951,88	3385,40
952,31	3252,90
952,74	3426,80
953,17	3312,00
953,61	3532,30
954,04	3248,20
954,47	3295,40
954,90	3310,20
955,33	3299,60
955,77	3303,60
956,20	3391,70
956,63	3275,60
957,06	3398,70
957,49	3642,30
957,93	3255,90
958,36	3385,30
958,79	3362,80
959,22	3300,90
959,65	3299,70
960,08	3299,80
960,52	3195,20
960,95	3310,20
961,38	3405,20
961,81	3395,00
962,24	3451,20
962,67	3414,80
963,11	3280,30
963,54	3358,90
963,97	3308,70
964,40	3358,80
964,83	3339,40
965,26	3280,50
965,69	3422,30
966,13	3296,30
966,56	3324,50
966,99	3394,50
967,42	3286,30
967,85	3293,40
968,28	3445,80
968,71	3792,10
969,14	3407,90
969,57	3340,80
970,01	3388,60
970,44	3278,00
970,87	3305,00
971,30	3387,70
971,73	3294,80
972,16	3347,20
972,59	3248,30
973,02	3283,70
973,45	3311,40
973,88	3382,80
974,31	3317,10
974,74	3407,00
975,17	3361,70
975,61	3301,40
976,04	3293,30
976,47	3277,90
976,90	3367,00
977,33	3262,20
977,76	3404,40
978,19	3346,60
978,62	3324,00
979,05	3329,20
979,48	3319,70
979,91	3437,20
980,34	3399,50
980,77	3302,60
981,20	3374,50
981,63	3441,50
982,06	3336,70
982,49	3336,80
982,92	3319,70
983,35	3314,10
983,78	3294,30
984,21	3448,50
984,64	3393,80
985,07	3255,90
985,50	3210,30
985,93	3323,70
986,36	3403,50
986,79	3339,00
987,22	3295,50
987,65	3390,30
988,08	3339,30
988,51	3356,80
988,94	3335,70
989,37	3355,10
989,80	3346,10
990,23	3326,70
990,66	3366,70
991,09	3347,40
991,51	3376,70
991,94	3516,00
992,37	3319,80
992,80	3278,10
993,23	3341,70
993,66	3286,40
994,09	3316,90
994,52	3396,70
994,95	3420,80
995,38	3350,00
995,81	3364,30
996,24	3243,80
996,67	3264,70
997,09	3208,30
997,52	3442,40
997,95	3405,90
998,38	3309,70
998,81	3357,40
999,24	3269,90
999,67	3488,30
1000,10	3335,50
1000,53	3367,30
1000,95	3464,10
1001,38	3271,50
1001,81	3366,60
1002,24	3414,50
1002,67	3343,00
1003,10	3365,60
1003,53	3341,50
1003,95	3410,10
1004,38	3271,90
1004,81	3371,30
1005,24	3353,40
1005,67	3484,40
1006,10	3308,90
1006,52	3247,70
1006,95	3393,40
1007,38	3322,60
1007,81	3292,80
1008,24	3242,10
1008,67	3335,80
1009,09	3304,40
1009,52	3722,20
1009,95	3436,90
1010,38	3415,60
1010,81	3373,40
1011,23	3398,60
1011,66	3437,50
1012,09	3327,70
1012,52	3418,30
1012,95	3363,80
1013,37	3392,90
1013,80	3397,70
1014,23	3275,60
1014,66	3475,90
1015,08	3241,00
1015,51	3415,00
1015,94	3292,30
1016,37	3358,20
1016,80	3275,10
1017,22	3386,10
1017,65	3315,40
1018,08	5739,70
1018,51	3287,70
1018,93	3218,90
1019,36	3640,00
1019,79	3456,30
1020,21	3406,30
1020,64	3326,00
1021,07	3348,40
1021,50	3376,50
1021,92	3377,10
1022,35	3392,70
1022,78	3347,60
1023,21	3704,50
1023,63	3454,50
1024,06	3442,90
1024,49	3414,40
1024,91	3362,40
1025,34	3369,50
1025,77	3427,50
1026,19	3290,20
1026,62	3273,00
1027,05	3602,50
1027,47	3414,40
1027,90	3374,60
1028,33	3367,00
1028,75	3371,40
1029,18	3313,70
1029,61	3577,20
1030,03	3361,30
1030,46	3350,80
1030,89	3379,60
1031,31	3485,30
1031,74	3257,70
1032,17	3387,70
1032,59	3425,80
1033,02	3338,50
1033,45	3429,40
1033,87	3292,40
1034,30	3303,20
1034,73	3386,30
1035,15	3446,20
1035,58	3321,00
1036,00	3529,40
1036,43	3296,10
1036,86	3317,50
1037,28	3377,60
1037,71	3251,10
1038,13	3434,00
1038,56	3438,70
1038,99	3418,80
1039,41	3467,80
1039,84	3510,40
1040,26	3333,30
1040,69	3348,70
1041,11	3385,40
1041,54	3321,70
1041,97	3489,70
1042,39	3475,20
1042,82	3409,70
1043,24	3458,70
1043,67	3357,00
1044,09	3442,90
1044,52	3300,30
1044,95	3342,50
1045,37	3325,30
1045,80	3298,30
1046,22	3378,20
1046,65	3401,80
1047,07	3298,30
1047,50	3395,30
1047,92	3444,60
1048,35	3280,20
1048,77	3460,20
1049,20	3418,10
1049,62	3440,50
1050,05	3342,30
1050,47	3337,40
1050,90	3404,80
1051,32	3443,90
1051,75	3476,40
1052,17	3475,30
1052,60	3369,20
1053,02	3429,30
1053,45	3212,40
1053,87	3362,60
1054,30	3225,80
1054,72	3347,20
1055,15	3299,90
1055,57	3386,60
1056,00	3413,40
1056,42	3546,00
1056,85	3462,90
1057,27	3461,00
1057,70	3369,40
1058,12	3772,50
1058,54	3291,70
1058,97	3417,90
1059,39	3436,30
1059,82	3349,70
1060,24	3358,00
1060,67	3312,70
1061,09	3447,10
1061,51	3395,40
1061,94	3335,10
1062,36	3444,20
1062,79	3524,00
1063,21	3383,20
1063,64	3353,10
1064,06	3320,10
1064,48	3450,00
1064,91	3471,80
1065,33	3333,80
1065,76	3301,80
1066,18	3266,80
1066,60	3455,60
1067,03	3370,90
1067,45	3348,40
1067,87	3393,60
1068,30	3331,30
1068,72	3533,70
1069,15	3377,50
1069,57	3332,60
1069,99	3259,20
1070,42	3449,10
1070,84	3465,10
1071,26	3470,50
1071,69	3342,30
1072,11	3427,60
1072,53	3326,20
1072,96	3293,10
1073,38	3267,40
1073,80	3444,40
1074,23	3333,10
1074,65	3273,10
1075,07	3336,60
1075,50	3337,40
1075,92	3379,20
1076,34	3316,20
1076,77	3311,90
1077,19	3348,00
1077,61	3446,10
1078,04	3332,80
1078,46	3423,10
1078,88	3503,20
1079,30	3217,70
1079,73	3384,60
1080,15	3333,50
1080,57	3356,80
1081,00	3416,70
1081,42	3366,40
1081,84	3334,90
1082,26	3395,20
1082,69	3359,80
1083,11	3364,30
1083,53	3363,20
1083,95	3376,10
1084,38	3464,10
1084,80	3357,80
1085,22	3340,90
1085,64	3474,00
1086,07	3296,40
1086,49	3322,50
1086,91	3405,00
1087,33	3255,40
1087,76	3439,60
1088,18	6712,20
1088,60	3374,20
1089,02	3309,50
1089,45	3329,20
1089,87	3335,40
1090,29	3460,00
1090,71	3350,40
1091,13	3266,70
1091,56	3341,50
1091,98	3338,20
1092,40	3296,00
1092,82	3344,80
1093,24	3315,20
1093,66	3364,30
1094,09	3328,20
1094,51	3368,90
1094,93	3338,20
1095,35	3360,50
1095,77	3321,30
1096,19	3360,10
1096,62	3395,70
1097,04	3264,40
1097,46	3372,90
1097,88	3300,40
1098,30	3417,00
1098,72	3405,50
1099,15	3425,00
1099,57	3337,50
1099,99	3356,10
1100,41	3289,90
1100,83	3327,40
1101,25	3321,60
1101,67	3346,70
1102,09	3264,30
1102,52	3308,50
1102,94	3331,20
1103,36	3344,10
1103,78	3377,20
1104,20	3295,80
1104,62	3501,40
1105,04	3203,80
1105,46	3360,20
1105,88	3327,30
1106,30	3301,00
1106,73	3342,80
1107,15	3197,40
1107,57	3239,90
1107,99	3436,30
1108,41	3233,40
1108,83	3391,30
1109,25	3366,70
1109,67	3361,10
1110,09	3218,50
1110,51	3290,30
1110,93	3217,90
1111,35	3290,70
1111,77	3233,70
1112,19	3233,90
1112,61	3200,90
1113,03	3283,10
1113,45	3239,10
1113,87	3228,50
1114,29	3313,90
1114,71	3350,70
1115,13	3258,80
1115,55	3278,60
1115,98	3257,20
1116,40	3343,00
1116,82	3289,10
1117,24	3301,50
1117,66	3245,50
1118,08	2156,50
1118,50	2179,60
1118,91	2178,20
1119,33	2178,00
>>>>>End Processed Spectral Data<<<<<
