SpectraSuite Data File
++++++++++++++++++++++++++++++++++++
Date: Thu Jul 18 13:52:43 EEST 2013
User: OO Maya
Dark Spectrum Present: No
Reference Spectrum Present: No
Number of Sampled Component Spectra: 1
Spectrometers: MAYP11278
Integration Time (usec): 1000000 (MAYP11278)
Spectra Averaged: 4 (MAYP11278)
Boxcar Smoothing: 0 (MAYP11278)
Correct for Electrical Dark: No (MAYP11278)
Strobe/Lamp Enabled: No (MAYP11278)
Correct for Detector Non-linearity: No (MAYP11278)
Correct for Stray Light: No (MAYP11278)
Number of Pixels in Processed Spectrum: 2068
>>>>>Begin Processed Spectral Data<<<<<
188,05	2303,00
188,53	2215,00
189,01	2185,50
189,49	2184,50
189,96	3692,00
190,44	3769,00
190,92	3791,75
191,40	3839,50
191,88	3916,25
192,36	3809,00
192,83	3766,00
193,31	3693,25
193,79	3805,00
194,27	3765,75
194,75	3832,25
195,23	3771,75
195,70	3919,00
196,18	3789,00
196,66	3807,00
197,14	4089,00
197,62	3804,00
198,09	3720,25
198,57	3805,50
199,05	3742,75
199,53	3862,00
200,01	3892,50
200,48	3778,25
200,96	3778,75
201,44	3886,25
201,92	3877,50
202,39	3879,00
202,87	3730,25
203,35	3865,25
203,83	3740,75
204,31	3906,50
204,78	3943,25
205,26	3773,00
205,74	3801,25
206,22	3977,00
206,69	3791,75
207,17	3870,00
207,65	4091,25
208,13	3854,25
208,60	3911,75
209,08	3826,75
209,56	3935,25
210,04	3866,25
210,51	3837,50
210,99	3819,50
211,47	3896,00
211,94	3830,25
212,42	3793,50
212,90	4025,75
213,38	3917,75
213,85	3801,25
214,33	4042,50
214,81	3862,75
215,29	3993,00
215,76	3888,00
216,24	3886,00
216,72	3909,50
217,19	3924,75
217,67	3779,00
218,15	3819,50
218,62	3991,50
219,10	3716,75
219,58	3751,50
220,05	3822,25
220,53	3846,25
221,01	3958,75
221,49	3820,00
221,96	3958,75
222,44	3798,00
222,92	3937,00
223,39	3804,25
223,87	3924,75
224,35	3853,25
224,82	3795,00
225,30	3764,50
225,78	3843,75
226,25	3792,00
226,73	3869,75
227,21	3980,50
227,68	3847,25
228,16	3902,50
228,63	3923,75
229,11	3922,50
229,59	3825,00
230,06	3856,75
230,54	3798,50
231,02	3952,25
231,49	3988,25
231,97	3875,25
232,45	3889,75
232,92	3805,25
233,40	3885,25
233,87	3908,75
234,35	4219,00
234,83	3911,75
235,30	3823,75
235,78	3818,75
236,25	3764,00
236,73	3972,75
237,21	4081,25
237,68	3797,00
238,16	3873,75
238,63	3895,00
239,11	3861,75
239,59	3875,75
240,06	3767,75
240,54	3933,75
241,01	3964,75
241,49	3899,00
241,96	3856,75
242,44	3957,25
242,92	3973,50
243,39	3775,00
243,87	3807,00
244,34	3946,25
244,82	4050,50
245,29	3851,50
245,77	3992,50
246,24	3979,00
246,72	3787,50
247,20	3897,25
247,67	3852,00
248,15	3892,25
248,62	3903,50
249,10	3724,75
249,57	3912,00
250,05	3957,75
250,52	3924,50
251,00	4001,25
251,47	3864,50
251,95	4106,50
252,42	4023,00
252,90	3852,75
253,37	3981,50
253,85	3903,50
254,32	3892,00
254,80	3922,50
255,27	3912,00
255,75	3951,25
256,22	3840,50
256,70	3935,25
257,17	3943,25
257,65	3984,50
258,12	4177,50
258,60	3907,25
259,07	3837,75
259,55	3899,00
260,02	3946,50
260,50	4056,00
260,97	3849,50
261,45	3830,50
261,92	3983,75
262,40	3805,25
262,87	3911,25
263,35	3889,50
263,82	3747,00
264,30	3958,75
264,77	4016,25
265,25	3863,00
265,72	3929,50
266,19	3932,25
266,67	4001,75
267,14	3851,00
267,62	3868,00
268,09	3927,25
268,57	3924,25
269,04	3746,75
269,51	3815,50
269,99	3826,50
270,46	3975,00
270,94	3985,00
271,41	3852,25
271,89	3906,00
272,36	3771,00
272,83	3764,00
273,31	3718,50
273,78	3904,50
274,26	4270,00
274,73	3965,00
275,20	3987,75
275,68	3843,50
276,15	3867,00
276,63	3948,50
277,10	3959,00
277,57	3779,25
278,05	3856,25
278,52	3787,75
279,00	4305,25
279,47	3869,00
279,94	3822,25
280,42	4294,50
280,89	4000,50
281,36	4220,25
281,84	3841,50
282,31	3998,75
282,78	3858,00
283,26	3877,25
283,73	3935,00
284,21	3828,75
284,68	3794,25
285,15	3970,75
285,63	3868,25
286,10	3934,25
286,57	3927,25
287,05	3775,25
287,52	3955,50
287,99	4056,00
288,47	3863,00
288,94	3966,50
289,41	3731,50
289,89	4036,50
290,36	3814,50
290,83	3922,50
291,30	3835,00
291,78	3946,25
292,25	4132,25
292,72	3840,25
293,20	3993,75
293,67	3862,25
294,14	3947,50
294,62	3929,00
295,09	3822,00
295,56	3921,50
296,03	3925,25
296,51	4087,00
296,98	4087,50
297,45	3983,00
297,93	3958,25
298,40	3968,75
298,87	3875,00
299,34	4078,00
299,82	3899,00
300,29	3957,25
300,76	3862,00
301,23	4007,50
301,71	4007,75
302,18	4014,50
302,65	3819,00
303,12	3996,75
303,60	4010,25
304,07	3831,00
304,54	3871,00
305,01	3840,50
305,49	3929,50
305,96	3965,25
306,43	3939,25
306,90	3955,75
307,38	3881,50
307,85	3872,25
308,32	3944,50
308,79	3888,50
309,27	4011,50
309,74	4042,25
310,21	3963,50
310,68	3933,00
311,15	3944,00
311,63	3865,50
312,10	4042,75
312,57	3928,50
313,04	4131,50
313,51	3880,25
313,99	3886,25
314,46	3932,25
314,93	3887,25
315,40	3866,00
315,87	4022,00
316,34	3974,25
316,82	3948,75
317,29	3978,25
317,76	3941,75
318,23	4232,75
318,70	3914,25
319,17	3897,00
319,65	3808,50
320,12	3984,00
320,59	4122,75
321,06	4016,00
321,53	3885,50
322,00	3760,00
322,48	3826,00
322,95	4091,00
323,42	3890,00
323,89	4175,00
324,36	3784,25
324,83	3956,25
325,30	3914,00
325,78	3901,50
326,25	3906,00
326,72	3863,75
327,19	3956,75
327,66	3962,50
328,13	3960,50
328,60	3929,50
329,07	3886,50
329,54	3909,75
330,02	3871,00
330,49	3847,75
330,96	3992,75
331,43	3988,25
331,90	4123,25
332,37	3856,00
332,84	4133,00
333,31	3974,25
333,78	3983,50
334,25	4049,00
334,72	3911,75
335,20	3958,50
335,67	4322,75
336,14	3809,00
336,61	3905,75
337,08	3880,25
337,55	3951,25
338,02	3869,75
338,49	3908,25
338,96	4090,50
339,43	4019,00
339,90	3794,50
340,37	3850,00
340,84	3820,00
341,31	3966,75
341,78	4014,25
342,25	3861,00
342,72	3923,00
343,19	4014,75
343,67	3931,75
344,14	3864,50
344,61	3900,75
345,08	3846,25
345,55	3916,50
346,02	3980,75
346,49	3848,25
346,96	3865,00
347,43	4078,50
347,90	3873,50
348,37	4039,50
348,84	3936,25
349,31	3804,50
349,78	3924,25
350,25	4004,50
350,72	3906,75
351,19	3861,50
351,66	3963,00
352,13	4107,25
352,60	3956,50
353,07	3908,50
353,54	3925,00
354,01	3981,75
354,48	3951,25
354,94	3984,75
355,41	3948,50
355,88	4064,00
356,35	3835,75
356,82	4091,25
357,29	3814,75
357,76	4175,50
358,23	3987,00
358,70	3806,25
359,17	3832,75
359,64	3843,75
360,11	3894,00
360,58	4014,00
361,05	4076,25
361,52	3898,00
361,99	3911,25
362,46	3940,00
362,93	3897,75
363,39	3924,50
363,86	4166,75
364,33	3934,00
364,80	3858,50
365,27	3995,00
365,74	3855,75
366,21	3802,00
366,68	3922,00
367,15	3915,00
367,62	6754,25
368,09	3695,75
368,55	3850,75
369,02	4007,75
369,49	3800,25
369,96	3988,75
370,43	3941,50
370,90	3879,50
371,37	3876,25
371,84	3965,25
372,31	3831,75
372,77	3784,00
373,24	3915,25
373,71	3913,00
374,18	3828,50
374,65	3841,25
375,12	3946,00
375,59	3782,25
376,05	4032,25
376,52	3881,00
376,99	3823,00
377,46	3811,00
377,93	3977,50
378,40	3927,25
378,86	3889,25
379,33	3935,00
379,80	3905,25
380,27	3958,75
380,74	4036,25
381,21	3922,50
381,67	4074,75
382,14	4065,75
382,61	3779,50
383,08	3944,75
383,55	3914,25
384,02	4034,25
384,48	3941,00
384,95	4498,75
385,42	3913,75
385,89	3875,25
386,36	3889,75
386,82	4107,50
387,29	3808,00
387,76	3806,25
388,23	4004,50
388,69	3936,50
389,16	4011,75
389,63	3834,50
390,10	3975,00
390,57	3946,50
391,03	3973,25
391,50	3953,00
391,97	3925,00
392,44	3969,25
392,90	3902,50
393,37	3905,00
393,84	4180,25
394,31	3909,50
394,77	4027,75
395,24	3856,75
395,71	4014,75
396,18	4445,75
396,64	3827,50
397,11	3964,75
397,58	4043,00
398,05	3839,50
398,51	3934,75
398,98	3899,25
399,45	3854,25
399,92	4073,50
400,38	3855,75
400,85	3919,75
401,32	3885,25
401,78	4020,75
402,25	3977,25
402,72	3962,75
403,18	3857,25
403,65	4113,75
404,12	3930,75
404,59	4092,25
405,05	4170,00
405,52	4099,25
405,99	3873,50
406,45	4056,50
406,92	4044,75
407,39	4220,25
407,85	3972,25
408,32	4016,00
408,79	4067,50
409,25	3906,50
409,72	4155,75
410,19	3936,50
410,65	4165,25
411,12	3992,50
411,59	4210,00
412,05	4044,75
412,52	3941,00
412,99	4151,00
413,45	4099,75
413,92	4190,50
414,39	4206,00
414,85	4397,75
415,32	4211,25
415,78	4389,50
416,25	4323,50
416,72	4336,50
417,18	4572,50
417,65	4442,25
418,12	4438,25
418,58	4510,75
419,05	4549,25
419,51	4707,25
419,98	4590,25
420,45	4770,50
420,91	4703,25
421,38	4859,75
421,84	4888,25
422,31	5130,25
422,78	5091,00
423,24	5211,50
423,71	5413,25
424,17	5568,00
424,64	5609,25
425,11	5849,25
425,57	5890,75
426,04	6169,25
426,50	6207,50
426,97	6523,25
427,43	6707,00
427,90	6915,75
428,37	6924,50
428,83	7433,25
429,30	7577,00
429,76	7825,25
430,23	8131,00
430,69	8742,00
431,16	8596,25
431,62	9032,25
432,09	9613,25
432,55	9911,50
433,02	10180,25
433,48	10632,75
433,95	11105,75
434,42	11552,00
434,88	12152,75
435,35	12474,75
435,81	13148,50
436,28	13687,00
436,74	14149,25
437,21	14990,50
437,67	15575,25
438,14	16268,50
438,60	16869,50
439,07	17746,75
439,53	18920,50
440,00	19503,00
440,46	20321,50
440,93	21330,25
441,39	22203,75
441,86	23194,00
442,32	24674,25
442,79	25487,50
443,25	26698,25
443,72	28066,25
444,18	29270,75
444,64	30855,25
445,11	32179,00
445,57	33733,25
446,04	35024,50
446,50	36536,00
446,97	37975,00
447,43	39583,50
447,90	41069,00
448,36	42542,25
448,83	43988,50
449,29	45306,00
449,75	46499,75
450,22	47751,50
450,68	48764,75
451,15	49680,00
451,61	50602,25
452,08	51446,25
452,54	51626,50
453,00	52157,25
453,47	52236,50
453,93	52186,25
454,40	51975,75
454,86	51737,50
455,32	51147,25
455,79	50604,75
456,25	49817,75
456,72	48780,75
457,18	48002,00
457,64	46666,50
458,11	45634,75
458,57	44353,75
459,04	43236,50
459,50	42131,75
459,96	40762,25
460,43	39623,25
460,89	38370,75
461,36	37478,25
461,82	36245,00
462,28	34959,00
462,75	33995,25
463,21	33292,50
463,67	32076,75
464,14	31274,25
464,60	30390,50
465,06	29438,75
465,53	28670,75
465,99	28072,00
466,45	27219,75
466,92	26606,00
467,38	25850,00
467,84	25051,75
468,31	24467,25
468,77	23813,50
469,23	23129,75
469,70	22424,25
470,16	21799,00
470,62	21244,00
471,09	20522,50
471,55	19899,25
472,01	19180,00
472,48	18596,25
472,94	18091,25
473,40	17624,00
473,87	16950,25
474,33	16350,75
474,79	15839,00
475,25	15244,25
475,72	14930,75
476,18	14353,50
476,64	14000,75
477,11	13511,75
477,57	13084,50
478,03	12854,50
478,49	12338,00
478,96	12060,75
479,42	11515,75
479,88	11437,50
480,35	11038,75
480,81	10755,00
481,27	10391,25
481,73	10147,25
482,20	9914,25
482,66	9534,50
483,12	9457,75
483,58	9154,75
484,05	9001,50
484,51	8992,50
484,97	8655,50
485,43	8436,25
485,89	8126,50
486,36	8028,25
486,82	7798,50
487,28	7839,50
487,74	7502,00
488,21	7329,75
488,67	7297,00
489,13	7206,75
489,59	7072,75
490,05	7053,25
490,52	6714,25
490,98	6682,75
491,44	6445,75
491,90	6392,75
492,36	6180,75
492,83	6346,00
493,29	6193,00
493,75	6081,25
494,21	5895,50
494,67	5846,75
495,14	5722,75
495,60	5618,25
496,06	5636,00
496,52	5531,00
496,98	5499,75
497,44	5642,00
497,91	5489,25
498,37	5250,50
498,83	5279,50
499,29	5209,00
499,75	5422,75
500,21	5095,25
500,67	5031,00
501,14	5018,00
501,60	4917,00
502,06	5003,00
502,52	4903,25
502,98	4839,75
503,44	4845,25
503,90	4858,00
504,37	4705,25
504,83	4795,50
505,29	4736,25
505,75	4603,25
506,21	4644,50
506,67	4694,00
507,13	4575,25
507,59	4631,50
508,05	4595,00
508,51	4480,75
508,98	4464,50
509,44	4339,50
509,90	4416,00
510,36	4434,00
510,82	4366,50
511,28	4560,25
511,74	4551,25
512,20	4314,50
512,66	4222,25
513,12	4310,00
513,58	4380,25
514,04	4143,25
514,51	4419,50
514,97	4461,50
515,43	4134,50
515,89	4289,25
516,35	4367,25
516,81	4309,25
517,27	4518,50
517,73	4286,00
518,19	4206,75
518,65	4631,50
519,11	4188,00
519,57	4146,50
520,03	4095,00
520,49	4113,75
520,95	4192,75
521,41	4231,00
521,87	4258,00
522,33	4177,50
522,79	4050,75
523,25	4339,75
523,71	4259,75
524,17	4121,00
524,63	4340,00
525,09	4191,00
525,55	4219,50
526,01	4277,50
526,47	4155,00
526,93	4110,25
527,39	4090,50
527,85	4079,50
528,31	4205,00
528,77	4161,75
529,23	4093,25
529,69	3996,00
530,15	4150,00
530,61	4166,25
531,07	3971,50
531,53	4221,00
531,99	4097,75
532,45	4091,75
532,91	4085,50
533,37	4156,50
533,83	4053,50
534,29	3968,00
534,75	4060,50
535,21	4035,25
535,67	4095,50
536,12	4020,50
536,58	4121,25
537,04	3961,75
537,50	4130,25
537,96	4053,50
538,42	4068,00
538,88	4264,50
539,34	4141,75
539,80	4644,75
540,26	3927,50
540,72	4260,25
541,18	4070,75
541,63	3933,75
542,09	4106,75
542,55	4086,75
543,01	3983,75
543,47	4385,00
543,93	3954,75
544,39	4261,25
544,85	4123,00
545,31	4041,25
545,76	4019,75
546,22	4179,75
546,68	4039,75
547,14	4087,50
547,60	4126,50
548,06	4054,75
548,52	4036,75
548,98	4017,75
549,43	3972,50
549,89	4273,00
550,35	4020,75
550,81	3912,75
551,27	4068,25
551,73	4055,50
552,19	4246,25
552,64	4083,75
553,10	3978,00
553,56	4108,75
554,02	4017,25
554,48	3951,00
554,93	4048,50
555,39	4038,75
555,85	4224,25
556,31	4036,25
556,77	4159,25
557,23	3904,75
557,68	4070,50
558,14	4283,50
558,60	4012,75
559,06	4028,50
559,52	3945,75
559,97	3985,00
560,43	3935,75
560,89	4020,50
561,35	4010,75
561,81	4023,25
562,26	3981,75
562,72	3950,25
563,18	4047,00
563,64	4137,25
564,09	3955,75
564,55	4070,25
565,01	3985,75
565,47	4007,75
565,92	4033,75
566,38	4139,75
566,84	4002,00
567,30	3953,50
567,75	4040,50
568,21	4113,75
568,67	3936,75
569,13	4010,00
569,58	4120,75
570,04	3999,25
570,50	4022,75
570,96	4086,00
571,41	4092,00
571,87	4007,25
572,33	4063,25
572,78	4076,75
573,24	3956,75
573,70	3955,00
574,16	4035,00
574,61	4149,50
575,07	4113,00
575,53	3929,25
575,98	4030,00
576,44	3840,50
576,90	4132,75
577,36	4010,75
577,81	3987,00
578,27	3909,00
578,73	4149,75
579,18	4050,00
579,64	3984,75
580,10	4067,75
580,55	4038,25
581,01	4011,75
581,47	4013,25
581,92	4056,50
582,38	4021,25
582,84	3912,00
583,29	4024,50
583,75	4048,00
584,21	4010,25
584,66	4091,00
585,12	3978,00
585,57	4330,50
586,03	4016,25
586,49	4008,50
586,94	4002,50
587,40	4011,25
587,86	4140,25
588,31	3902,00
588,77	4050,50
589,22	3969,25
589,68	3934,50
590,14	4050,25
590,59	4082,00
591,05	3959,50
591,51	3908,00
591,96	4162,00
592,42	3959,25
592,87	4061,25
593,33	4017,75
593,78	4122,75
594,24	4016,50
594,70	4004,50
595,15	4150,00
595,61	3989,25
596,06	3924,00
596,52	4182,25
596,98	4094,00
597,43	4150,75
597,89	4052,25
598,34	3894,25
598,80	4018,50
599,25	4174,75
599,71	3932,25
600,16	4081,50
600,62	4153,00
601,08	4077,50
601,53	4105,75
601,99	3912,75
602,44	4354,50
602,90	4005,00
603,35	4027,75
603,81	3909,50
604,26	3879,50
604,72	4079,75
605,17	3980,50
605,63	4068,00
606,08	4033,25
606,54	3897,75
606,99	4028,25
607,45	3980,00
607,90	4025,75
608,36	4091,50
608,81	4044,25
609,27	4296,50
609,72	4113,50
610,18	4006,75
610,63	3968,25
611,09	4068,75
611,54	3910,00
612,00	4214,50
612,45	4110,25
612,91	4005,25
613,36	4384,75
613,82	3897,00
614,27	3901,25
614,73	3928,75
615,18	3917,75
615,64	3980,50
616,09	4006,00
616,54	3915,75
617,00	3977,25
617,45	4033,25
617,91	4098,00
618,36	3964,00
618,82	3959,50
619,27	4003,50
619,72	4134,75
620,18	3988,75
620,63	4129,00
621,09	4145,25
621,54	4023,25
622,00	4110,00
622,45	4168,00
622,90	4129,75
623,36	3965,50
623,81	3975,25
624,27	4136,25
624,72	3922,50
625,17	4003,75
625,63	4034,75
626,08	3947,50
626,54	4011,50
626,99	4047,50
627,44	3918,50
627,90	4110,50
628,35	4083,75
628,81	3871,75
629,26	3983,00
629,71	4052,50
630,17	3960,75
630,62	4085,25
631,07	4009,75
631,53	4092,00
631,98	4071,50
632,43	4161,25
632,89	3953,00
633,34	3964,75
633,79	3928,00
634,25	3962,25
634,70	3949,75
635,15	3999,25
635,61	3964,75
636,06	3887,25
636,51	4010,75
636,97	4006,75
637,42	3955,25
637,87	4118,00
638,33	4124,00
638,78	3966,00
639,23	4032,50
639,69	3915,00
640,14	3879,00
640,59	4045,50
641,05	4120,25
641,50	3900,50
641,95	3979,75
642,40	3989,75
642,86	3879,25
643,31	3981,50
643,76	4071,25
644,22	3977,25
644,67	3907,75
645,12	3967,75
645,57	3907,75
646,03	4005,50
646,48	4003,00
646,93	4059,50
647,38	4081,25
647,84	4019,25
648,29	4015,75
648,74	3900,25
649,19	4124,00
649,65	4067,25
650,10	4451,00
650,55	3918,75
651,00	3919,25
651,46	3920,00
651,91	4013,25
652,36	3908,25
652,81	3987,00
653,27	3943,50
653,72	3920,25
654,17	4012,25
654,62	4043,25
655,07	3959,50
655,53	3856,50
655,98	4061,75
656,43	3916,25
656,88	3968,25
657,33	4052,00
657,79	4079,75
658,24	3935,50
658,69	4020,25
659,14	3908,25
659,59	4504,25
660,05	3956,50
660,50	4139,25
660,95	3973,25
661,40	3917,50
661,85	3984,50
662,30	3929,50
662,76	3873,25
663,21	4052,00
663,66	3964,25
664,11	3929,00
664,56	4015,00
665,01	3900,75
665,47	4024,50
665,92	3894,00
666,37	4048,00
666,82	4026,00
667,27	4282,25
667,72	4157,50
668,17	3930,00
668,62	4046,00
669,08	3916,00
669,53	4250,25
669,98	3830,25
670,43	3913,75
670,88	4139,75
671,33	4003,50
671,78	4186,25
672,23	4265,75
672,69	3982,25
673,14	4013,00
673,59	4119,00
674,04	4377,50
674,49	4025,50
674,94	4048,50
675,39	3863,50
675,84	3883,50
676,29	4018,25
676,74	3976,00
677,19	3999,25
677,64	3959,00
678,10	4319,00
678,55	3933,75
679,00	3940,25
679,45	4016,75
679,90	3915,75
680,35	4016,75
680,80	4005,50
681,25	3831,00
681,70	3839,25
682,15	3973,00
682,60	3985,50
683,05	4072,00
683,50	4066,50
683,95	4028,75
684,40	4107,50
684,85	4072,75
685,30	4012,50
685,75	4000,75
686,20	3947,75
686,65	3850,00
687,10	3945,50
687,55	3910,50
688,00	3971,25
688,45	3957,00
688,90	4291,00
689,35	4035,50
689,80	3812,00
690,25	3975,75
690,70	3967,75
691,15	3858,50
691,60	3955,75
692,05	3839,00
692,50	3979,50
692,95	3935,00
693,40	4031,00
693,85	4028,00
694,30	3983,50
694,75	4016,50
695,20	4504,00
695,65	4002,50
696,10	4024,50
696,55	4202,75
697,00	3999,75
697,45	3937,75
697,90	4028,00
698,35	3903,25
698,80	4072,75
699,24	4074,75
699,69	3904,75
700,14	3968,00
700,59	4062,50
701,04	4069,50
701,49	4428,25
701,94	3868,00
702,39	4149,75
702,84	3945,50
703,29	3963,50
703,74	4034,00
704,19	4005,00
704,63	3961,25
705,08	4136,00
705,53	4089,25
705,98	4126,25
706,43	3909,00
706,88	4061,25
707,33	4050,00
707,78	3993,50
708,22	4089,75
708,67	4134,50
709,12	4016,25
709,57	3961,75
710,02	4023,75
710,47	4028,50
710,92	3954,00
711,37	4091,50
711,81	4039,25
712,26	4021,50
712,71	3956,75
713,16	4273,25
713,61	4004,25
714,06	4030,75
714,50	4171,00
714,95	4113,00
715,40	4013,50
715,85	4019,75
716,30	3924,00
716,75	3921,75
717,19	3825,50
717,64	3821,50
718,09	4010,25
718,54	4134,50
718,99	3853,25
719,43	3823,25
719,88	4002,75
720,33	3936,00
720,78	3931,50
721,23	4005,75
721,67	3922,75
722,12	4081,75
722,57	3976,50
723,02	3872,25
723,47	3823,00
723,91	3989,25
724,36	3815,25
724,81	4020,25
725,26	3851,25
725,70	3944,00
726,15	3936,25
726,60	3970,50
727,05	4172,50
727,49	3871,00
727,94	4137,00
728,39	4029,00
728,84	3927,75
729,28	4103,50
729,73	3932,00
730,18	4074,25
730,63	3895,50
731,07	3982,00
731,52	4044,75
731,97	4028,75
732,41	4036,75
732,86	3956,00
733,31	4101,25
733,76	4055,50
734,20	3970,00
734,65	4121,75
735,10	4120,25
735,54	4053,75
735,99	4388,00
736,44	3957,00
736,89	4084,25
737,33	4155,00
737,78	4114,00
738,23	4047,50
738,67	4028,50
739,12	4077,00
739,57	3951,75
740,01	4195,75
740,46	4097,00
740,91	4008,25
741,35	4104,75
741,80	4130,75
742,25	4061,25
742,69	4078,75
743,14	3999,00
743,59	3989,25
744,03	4063,75
744,48	4205,00
744,92	4164,50
745,37	4154,00
745,82	4188,75
746,26	4263,25
746,71	3904,00
747,16	3974,50
747,60	3938,50
748,05	4140,75
748,49	4074,75
748,94	4025,25
749,39	4129,75
749,83	4456,75
750,28	4097,25
750,73	4044,75
751,17	3966,00
751,62	4027,75
752,06	4025,75
752,51	4070,00
752,95	4276,75
753,40	4030,00
753,85	4057,75
754,29	3964,25
754,74	4037,00
755,18	3971,75
755,63	4056,50
756,07	4083,75
756,52	4225,25
756,97	4034,75
757,41	4204,75
757,86	4068,50
758,30	4033,25
758,75	4000,25
759,19	3949,50
759,64	3794,75
760,08	3884,75
760,53	3929,00
760,98	3883,00
761,42	3986,75
761,87	4070,25
762,31	3893,00
762,76	3822,75
763,20	3892,25
763,65	4008,00
764,09	3936,00
764,54	3872,75
764,98	3919,75
765,43	4038,75
765,87	3902,75
766,32	3894,75
766,76	3962,25
767,21	4035,00
767,65	4073,75
768,10	4072,25
768,54	4124,50
768,99	4080,75
769,43	4287,50
769,88	3986,75
770,32	4043,00
770,77	3989,00
771,21	3971,00
771,65	4142,50
772,10	4079,00
772,54	4066,75
772,99	3931,50
773,43	4006,75
773,88	4043,50
774,32	3881,75
774,77	4059,75
775,21	3967,00
775,65	4086,50
776,10	4052,50
776,54	3973,50
776,99	4033,75
777,43	4035,75
777,88	4116,75
778,32	4107,00
778,76	4029,25
779,21	4084,75
779,65	4396,50
780,10	4220,25
780,54	4050,25
780,99	4146,50
781,43	4118,50
781,87	3981,75
782,32	4097,25
782,76	3952,00
783,20	4015,75
783,65	4112,50
784,09	4142,25
784,54	4038,50
784,98	4003,75
785,42	4010,75
785,87	3972,25
786,31	4088,00
786,75	4170,75
787,20	4172,50
787,64	3951,25
788,09	3968,00
788,53	4072,50
788,97	3960,25
789,42	3972,75
789,86	3979,00
790,30	4002,00
790,75	3921,00
791,19	3942,50
791,63	4117,75
792,08	3983,25
792,52	4016,00
792,96	3957,50
793,41	4513,25
793,85	4153,00
794,29	4028,75
794,74	4056,00
795,18	4020,25
795,62	3931,00
796,06	4044,00
796,51	3984,75
796,95	4023,25
797,39	3974,25
797,84	3922,50
798,28	4008,50
798,72	4119,75
799,16	4007,00
799,61	3916,50
800,05	4170,75
800,49	4039,00
800,94	3907,00
801,38	4039,25
801,82	4002,75
802,26	3915,75
802,71	4116,75
803,15	4210,75
803,59	4083,25
804,03	4021,00
804,48	3998,25
804,92	3949,00
805,36	4219,00
805,80	4231,25
806,25	4201,50
806,69	4092,50
807,13	4237,75
807,57	3971,25
808,01	3980,75
808,46	3888,50
808,90	4053,25
809,34	4015,25
809,78	3945,00
810,23	3888,50
810,67	4028,50
811,11	4130,75
811,55	4388,00
811,99	3891,75
812,44	3864,50
812,88	4036,00
813,32	4169,25
813,76	4046,50
814,20	3954,00
814,64	4022,25
815,09	3984,00
815,53	3968,25
815,97	3872,75
816,41	3863,50
816,85	3878,25
817,29	4013,25
817,74	3949,00
818,18	4049,75
818,62	3900,25
819,06	4016,25
819,50	4083,50
819,94	3919,25
820,39	4016,25
820,83	3914,25
821,27	3961,00
821,71	3864,00
822,15	4095,75
822,59	3829,25
823,03	3951,50
823,47	3954,00
823,92	3854,25
824,36	3977,00
824,80	3928,00
825,24	3977,75
825,68	4010,75
826,12	3844,50
826,56	3920,25
827,00	3788,75
827,44	3956,50
827,88	4015,50
828,33	4076,25
828,77	3887,00
829,21	4053,75
829,65	4007,75
830,09	3911,00
830,53	4130,75
830,97	3910,25
831,41	4237,50
831,85	4039,25
832,29	4037,25
832,73	3836,75
833,17	3950,75
833,61	3936,00
834,05	4119,00
834,49	4066,75
834,93	3939,75
835,37	3913,75
835,82	4076,25
836,26	3958,25
836,70	3988,00
837,14	3953,00
837,58	4086,75
838,02	3891,25
838,46	3907,75
838,90	4008,75
839,34	3970,75
839,78	4135,50
840,22	4235,50
840,66	4022,50
841,10	4129,75
841,54	3824,00
841,98	3922,00
842,42	3865,75
842,86	3942,50
843,30	4043,50
843,74	3984,00
844,18	4024,25
844,62	3985,25
845,06	3894,00
845,50	4042,00
845,94	3959,75
846,37	4084,25
846,81	3927,50
847,25	3924,25
847,69	3958,50
848,13	3915,75
848,57	3941,50
849,01	3940,00
849,45	4046,00
849,89	4099,25
850,33	4045,00
850,77	3970,00
851,21	4069,75
851,65	3904,50
852,09	3999,75
852,53	4078,25
852,97	3901,25
853,40	3907,50
853,84	4070,00
854,28	3834,50
854,72	4040,00
855,16	3853,75
855,60	3918,00
856,04	4095,25
856,48	4150,75
856,92	3981,00
857,36	4025,25
857,79	3974,00
858,23	3858,25
858,67	4096,25
859,11	3811,25
859,55	3924,50
859,99	3931,75
860,43	3934,00
860,87	3994,25
861,30	4047,75
861,74	3901,25
862,18	3977,75
862,62	4030,00
863,06	3924,25
863,50	3934,00
863,94	4085,75
864,37	3879,25
864,81	3960,25
865,25	3949,75
865,69	3822,00
866,13	3939,00
866,57	3823,00
867,00	4054,50
867,44	3887,00
867,88	4018,50
868,32	3945,25
868,76	3944,25
869,19	4009,75
869,63	3966,50
870,07	4164,75
870,51	4266,00
870,95	3848,50
871,38	3948,25
871,82	3958,00
872,26	3898,75
872,70	3989,50
873,14	4042,50
873,57	3948,00
874,01	4088,25
874,45	4035,25
874,89	3962,25
875,32	3898,00
875,76	4106,25
876,20	3827,50
876,64	4036,00
877,07	3959,50
877,51	3963,25
877,95	3955,00
878,39	3932,25
878,82	4006,00
879,26	3946,50
879,70	4132,00
880,14	3893,50
880,57	3848,00
881,01	3929,25
881,45	3984,00
881,89	4033,00
882,32	3972,00
882,76	3953,50
883,20	3928,75
883,63	3944,00
884,07	3859,75
884,51	4026,50
884,94	3964,00
885,38	3983,25
885,82	4039,50
886,26	3896,00
886,69	3893,50
887,13	4143,25
887,57	3876,75
888,00	3882,75
888,44	3946,50
888,88	3910,75
889,31	4355,00
889,75	3836,50
890,19	4047,50
890,62	3881,25
891,06	4029,25
891,50	4028,00
891,93	3851,75
892,37	3897,00
892,81	3903,25
893,24	3834,00
893,68	3888,50
894,11	3990,75
894,55	3890,25
894,99	3991,50
895,42	3887,25
895,86	3808,50
896,30	3909,50
896,73	3953,50
897,17	3819,75
897,60	3819,25
898,04	3837,75
898,48	3941,00
898,91	4019,25
899,35	3822,75
899,78	3832,75
900,22	3824,00
900,66	3991,25
901,09	3983,75
901,53	3843,00
901,96	4098,00
902,40	4127,75
902,84	3818,50
903,27	3887,25
903,71	4105,75
904,14	3850,50
904,58	3963,00
905,01	3844,00
905,45	3874,25
905,88	3794,00
906,32	4006,25
906,76	3917,00
907,19	3996,50
907,63	3933,50
908,06	3871,25
908,50	3957,50
908,93	4049,25
909,37	3837,00
909,80	3781,50
910,24	3939,75
910,67	3907,50
911,11	3863,00
911,54	3845,25
911,98	3858,00
912,41	3888,00
912,85	3860,50
913,28	3924,50
913,72	3922,75
914,15	3888,75
914,59	3776,75
915,02	3768,50
915,46	3839,25
915,89	3823,50
916,33	3989,25
916,76	3832,25
917,20	3993,00
917,63	3829,50
918,07	3948,75
918,50	3829,25
918,94	3858,00
919,37	3883,75
919,81	3970,50
920,24	4003,25
920,67	3891,00
921,11	4085,00
921,54	3960,50
921,98	3855,25
922,41	3806,50
922,85	3793,00
923,28	3919,00
923,72	4071,75
924,15	3959,50
924,58	3772,25
925,02	3961,75
925,45	3790,25
925,89	3966,25
926,32	4133,75
926,75	3868,75
927,19	3933,25
927,62	3747,25
928,06	4142,75
928,49	3848,00
928,92	3750,75
929,36	3947,00
929,79	3824,50
930,23	3898,00
930,66	3932,75
931,09	3788,50
931,53	3889,75
931,96	3693,75
932,39	4054,00
932,83	3955,25
933,26	4172,50
933,70	3808,00
934,13	3951,75
934,56	3936,75
935,00	3905,50
935,43	3855,25
935,86	3751,25
936,30	3809,25
936,73	3759,75
937,16	3888,50
937,60	3747,50
938,03	3902,75
938,46	3798,00
938,90	3823,00
939,33	3917,75
939,76	3754,50
940,19	3835,75
940,63	3939,75
941,06	4099,75
941,49	3805,00
941,93	3982,00
942,36	3754,00
942,79	3818,25
943,23	3918,75
943,66	3704,75
944,09	3715,75
944,52	3918,75
944,96	3884,75
945,39	3896,00
945,82	3834,25
946,26	3863,25
946,69	3874,50
947,12	3966,75
947,55	3843,00
947,99	3840,50
948,42	3913,75
948,85	3720,00
949,28	3791,50
949,72	3737,25
950,15	4146,25
950,58	3983,50
951,01	3795,25
951,45	3793,50
951,88	3894,00
952,31	3690,50
952,74	3938,25
953,17	3800,00
953,61	4074,00
954,04	3736,75
954,47	3774,50
954,90	3810,75
955,33	3795,75
955,77	3799,50
956,20	3903,50
956,63	3736,75
957,06	3918,50
957,49	4209,25
957,93	3744,75
958,36	3908,00
958,79	3856,00
959,22	3809,25
959,65	3821,25
960,08	3785,00
960,52	3673,75
960,95	3830,75
961,38	3922,00
961,81	3889,50
962,24	3955,75
962,67	3944,00
963,11	3807,00
963,54	3885,25
963,97	3814,25
964,40	3890,25
964,83	3827,00
965,26	3780,75
965,69	3959,25
966,13	3814,75
966,56	3831,75
966,99	3934,50
967,42	3813,25
967,85	3801,25
968,28	3999,25
968,71	4340,50
969,14	3942,75
969,57	3827,00
970,01	3907,75
970,44	3784,75
970,87	3827,50
971,30	3903,00
971,73	3816,00
972,16	3860,25
972,59	3734,50
973,02	3813,00
973,45	3845,75
973,88	3919,25
974,31	3826,75
974,74	3940,25
975,17	3899,75
975,61	3808,50
976,04	3816,00
976,47	3827,75
976,90	3888,00
977,33	3787,25
977,76	3942,50
978,19	3889,25
978,62	3823,50
979,05	3828,00
979,48	3848,00
979,91	3968,50
980,34	3912,00
980,77	3836,50
981,20	3920,25
981,63	3986,50
982,06	3877,50
982,49	3866,00
982,92	3838,00
983,35	3832,75
983,78	3836,75
984,21	3980,25
984,64	3932,00
985,07	3793,75
985,50	3712,75
985,93	3865,75
986,36	3961,75
986,79	3874,50
987,22	3812,50
987,65	3925,75
988,08	3878,25
988,51	3884,00
988,94	3850,50
989,37	3906,25
989,80	3884,00
990,23	3841,50
990,66	3922,00
991,09	3864,50
991,51	3919,00
991,94	4086,25
992,37	3843,00
992,80	3788,25
993,23	3886,25
993,66	3820,75
994,09	3862,50
994,52	3926,75
994,95	3973,50
995,38	3886,50
995,81	3883,25
996,24	3741,75
996,67	3781,25
997,09	3708,50
997,52	3982,75
997,95	3964,00
998,38	3842,75
998,81	3916,50
999,24	3799,75
999,67	4041,50
1000,10	3884,25
1000,53	3895,50
1000,95	4020,50
1001,38	3804,00
1001,81	3904,25
1002,24	3953,75
1002,67	3887,25
1003,10	3916,75
1003,53	3851,25
1003,95	3974,50
1004,38	3789,75
1004,81	3897,00
1005,24	3880,75
1005,67	4032,50
1006,10	3857,25
1006,52	3774,00
1006,95	3903,75
1007,38	3858,25
1007,81	3815,25
1008,24	3757,75
1008,67	3869,00
1009,09	3830,50
1009,52	4312,25
1009,95	4001,00
1010,38	3977,00
1010,81	3936,00
1011,23	3933,25
1011,66	3971,50
1012,09	3908,25
1012,52	3962,00
1012,95	3904,25
1013,37	3899,50
1013,80	3920,25
1014,23	3783,75
1014,66	4019,00
1015,08	3767,25
1015,51	3972,75
1015,94	3813,00
1016,37	3877,75
1016,80	3796,50
1017,22	3936,00
1017,65	3855,25
1018,08	6793,50
1018,51	3792,00
1018,93	3721,75
1019,36	4195,00
1019,79	3982,00
1020,21	3956,50
1020,64	3867,50
1021,07	3879,00
1021,50	3927,00
1021,92	3919,50
1022,35	3941,50
1022,78	3892,00
1023,21	4314,00
1023,63	4012,75
1024,06	3976,25
1024,49	3950,00
1024,91	3900,00
1025,34	3893,00
1025,77	3967,25
1026,19	3799,00
1026,62	3786,25
1027,05	4143,50
1027,47	3966,00
1027,90	3906,00
1028,33	3873,00
1028,75	3898,50
1029,18	3816,50
1029,61	4133,75
1030,03	3906,50
1030,46	3879,75
1030,89	3919,75
1031,31	4034,00
1031,74	3752,25
1032,17	3923,50
1032,59	3950,25
1033,02	3854,75
1033,45	3961,50
1033,87	3807,50
1034,30	3801,25
1034,73	3922,50
1035,15	3938,50
1035,58	3813,50
1036,00	4057,50
1036,43	3799,00
1036,86	3828,50
1037,28	3906,50
1037,71	3757,75
1038,13	3954,75
1038,56	3973,00
1038,99	3954,75
1039,41	4006,25
1039,84	4055,75
1040,26	3836,00
1040,69	3870,00
1041,11	3919,00
1041,54	3822,00
1041,97	4033,25
1042,39	4009,00
1042,82	3936,00
1043,24	3970,00
1043,67	3865,75
1044,09	3965,50
1044,52	3809,00
1044,95	3862,75
1045,37	3805,50
1045,80	3779,00
1046,22	3907,00
1046,65	3932,25
1047,07	3804,50
1047,50	3897,75
1047,92	3957,25
1048,35	3787,50
1048,77	3978,00
1049,20	3924,25
1049,62	3960,75
1050,05	3857,00
1050,47	3847,25
1050,90	3893,75
1051,32	3946,75
1051,75	4029,25
1052,17	4013,25
1052,60	3900,75
1053,02	3959,50
1053,45	3698,00
1053,87	3876,75
1054,30	3724,50
1054,72	3841,00
1055,15	3830,75
1055,57	3881,00
1056,00	3939,00
1056,42	4093,25
1056,85	3996,00
1057,27	4005,50
1057,70	3857,50
1058,12	4333,50
1058,54	3804,25
1058,97	3920,50
1059,39	3937,25
1059,82	3863,75
1060,24	3839,00
1060,67	3821,00
1061,09	3979,75
1061,51	3873,00
1061,94	3826,25
1062,36	3954,00
1062,79	4057,50
1063,21	3868,50
1063,64	3844,75
1064,06	3780,50
1064,48	3975,00
1064,91	3976,50
1065,33	3833,00
1065,76	3791,25
1066,18	3718,50
1066,60	3964,25
1067,03	3856,50
1067,45	3862,00
1067,87	3898,00
1068,30	3826,00
1068,72	4066,25
1069,15	3870,00
1069,57	3831,25
1069,99	3724,50
1070,42	3955,25
1070,84	3994,75
1071,26	3962,75
1071,69	3819,75
1072,11	3928,25
1072,53	3810,00
1072,96	3764,50
1073,38	3757,50
1073,80	3944,00
1074,23	3809,75
1074,65	3739,75
1075,07	3831,50
1075,50	3815,75
1075,92	3903,75
1076,34	3792,25
1076,77	3775,25
1077,19	3836,00
1077,61	3930,50
1078,04	3840,25
1078,46	3948,00
1078,88	4017,00
1079,30	3702,25
1079,73	3866,00
1080,15	3827,75
1080,57	3845,50
1081,00	3908,50
1081,42	3838,00
1081,84	3797,00
1082,26	3882,25
1082,69	3834,00
1083,11	3829,75
1083,53	3838,00
1083,95	3860,75
1084,38	3959,00
1084,80	3834,50
1085,22	3815,00
1085,64	3986,50
1086,07	3760,25
1086,49	3811,25
1086,91	3880,50
1087,33	3706,50
1087,76	3917,75
1088,18	7003,50
1088,60	3873,00
1089,02	3775,75
1089,45	3812,50
1089,87	3815,50
1090,29	3986,75
1090,71	3826,75
1091,13	3749,25
1091,56	3859,50
1091,98	3818,00
1092,40	3770,25
1092,82	3839,25
1093,24	3794,50
1093,66	3846,00
1094,09	3790,75
1094,51	3843,25
1094,93	3825,00
1095,35	3879,25
1095,77	3786,25
1096,19	3839,75
1096,62	3885,50
1097,04	3737,25
1097,46	3827,50
1097,88	3771,50
1098,30	3911,25
1098,72	3909,75
1099,15	3904,50
1099,57	3788,50
1099,99	3852,75
1100,41	3753,25
1100,83	3793,75
1101,25	3783,25
1101,67	3851,00
1102,09	3718,25
1102,52	3777,00
1102,94	3805,25
1103,36	3811,75
1103,78	3858,25
1104,20	3780,75
1104,62	3973,50
1105,04	3645,25
1105,46	3849,25
1105,88	3811,00
1106,30	3755,25
1106,73	3794,00
1107,15	3663,25
1107,57	3703,25
1107,99	3908,50
1108,41	3704,00
1108,83	3844,75
1109,25	3858,25
1109,67	3868,00
1110,09	3667,25
1110,51	3760,50
1110,93	3663,75
1111,35	3762,75
1111,77	3677,75
1112,19	3709,75
1112,61	3662,50
1113,03	3742,50
1113,45	3708,25
1113,87	3696,75
1114,29	3806,75
1114,71	3816,75
1115,13	3723,50
1115,55	3753,00
1115,98	3725,25
1116,40	3817,25
1116,82	3771,25
1117,24	3779,75
1117,66	3672,50
1118,08	2151,00
1118,50	2187,25
1118,91	2184,50
1119,33	2185,25
>>>>>End Processed Spectral Data<<<<<
