SpectraSuite Data File
++++++++++++++++++++++++++++++++++++
Date: Thu Jul 18 13:56:03 EEST 2013
User: OO Maya
Dark Spectrum Present: No
Reference Spectrum Present: No
Number of Sampled Component Spectra: 1
Spectrometers: MAYP11278
Integration Time (usec): 1000000 (MAYP11278)
Spectra Averaged: 4 (MAYP11278)
Boxcar Smoothing: 0 (MAYP11278)
Correct for Electrical Dark: No (MAYP11278)
Strobe/Lamp Enabled: No (MAYP11278)
Correct for Detector Non-linearity: No (MAYP11278)
Correct for Stray Light: No (MAYP11278)
Number of Pixels in Processed Spectrum: 2068
>>>>>Begin Processed Spectral Data<<<<<
188,05	2297,75
188,53	2212,50
189,01	2182,25
189,49	2183,75
189,96	3691,75
190,44	3754,00
190,92	3769,50
191,40	3825,00
191,88	3899,75
192,36	3789,50
192,83	3739,75
193,31	3689,75
193,79	3793,00
194,27	3760,25
194,75	3830,25
195,23	3756,00
195,70	3896,75
196,18	3752,75
196,66	3774,75
197,14	4088,75
197,62	3790,00
198,09	3702,50
198,57	3765,00
199,05	3732,50
199,53	3831,75
200,01	3886,25
200,48	3761,50
200,96	3784,50
201,44	3906,00
201,92	3869,75
202,39	3855,50
202,87	3711,50
203,35	3839,75
203,83	3739,50
204,31	3901,75
204,78	3934,25
205,26	3764,00
205,74	3765,00
206,22	3959,75
206,69	3785,75
207,17	3850,50
207,65	4060,00
208,13	3837,00
208,60	3895,75
209,08	3809,50
209,56	3915,75
210,04	3882,25
210,51	3820,50
210,99	3804,75
211,47	3879,50
211,94	3829,75
212,42	3776,00
212,90	4006,75
213,38	3899,50
213,85	3787,00
214,33	4026,25
214,81	3853,00
215,29	3962,50
215,76	3866,00
216,24	3891,00
216,72	3875,50
217,19	3882,75
217,67	3765,00
218,15	3842,00
218,62	3980,25
219,10	3703,75
219,58	3758,00
220,05	3796,00
220,53	3829,00
221,01	3978,50
221,49	3813,00
221,96	3926,75
222,44	3790,75
222,92	3917,25
223,39	3773,00
223,87	3920,25
224,35	3817,00
224,82	3788,25
225,30	3756,50
225,78	3827,75
226,25	3789,50
226,73	3860,25
227,21	3966,75
227,68	3826,50
228,16	3907,50
228,63	3905,25
229,11	3902,00
229,59	3820,75
230,06	3852,50
230,54	3809,00
231,02	3927,25
231,49	3956,75
231,97	3859,50
232,45	3855,25
232,92	3773,25
233,40	3870,75
233,87	3867,50
234,35	4185,25
234,83	3875,00
235,30	3776,25
235,78	3796,75
236,25	3750,25
236,73	3933,25
237,21	4088,00
237,68	3793,00
238,16	3873,25
238,63	3880,50
239,11	3857,75
239,59	3850,75
240,06	3724,75
240,54	3918,50
241,01	3974,75
241,49	3876,50
241,96	3805,25
242,44	3938,50
242,92	3964,75
243,39	3760,75
243,87	3815,00
244,34	3923,00
244,82	4012,00
245,29	3813,00
245,77	3993,00
246,24	3957,00
246,72	3785,00
247,20	3852,00
247,67	3834,25
248,15	3885,50
248,62	3896,25
249,10	3706,00
249,57	3882,50
250,05	3936,50
250,52	3875,50
251,00	4014,00
251,47	3883,50
251,95	4090,25
252,42	3979,00
252,90	3794,25
253,37	3966,75
253,85	3888,75
254,32	3843,25
254,80	3912,00
255,27	3912,00
255,75	3945,25
256,22	3820,25
256,70	3882,00
257,17	3903,00
257,65	3974,75
258,12	4173,50
258,60	3870,25
259,07	3807,75
259,55	3864,25
260,02	3923,25
260,50	4046,75
260,97	3833,50
261,45	3824,25
261,92	3987,25
262,40	3806,00
262,87	3899,50
263,35	3874,50
263,82	3757,25
264,30	3941,25
264,77	3990,50
265,25	3835,75
265,72	3894,50
266,19	3923,25
266,67	3965,50
267,14	3843,75
267,62	3864,00
268,09	3896,00
268,57	3903,00
269,04	3738,25
269,51	3796,50
269,99	3823,75
270,46	3935,00
270,94	3935,50
271,41	3819,25
271,89	3891,50
272,36	3752,00
272,83	3750,25
273,31	3676,00
273,78	3879,75
274,26	4243,00
274,73	3942,25
275,20	3936,00
275,68	3810,75
276,15	3838,25
276,63	3919,25
277,10	3946,50
277,57	3754,50
278,05	3850,50
278,52	3746,50
279,00	4295,75
279,47	3825,75
279,94	3816,75
280,42	4261,00
280,89	3985,50
281,36	4209,25
281,84	3803,25
282,31	3976,25
282,78	3830,25
283,26	3865,50
283,73	3925,50
284,21	3793,75
284,68	3761,75
285,15	3939,50
285,63	3861,25
286,10	3922,00
286,57	3900,25
287,05	3755,00
287,52	3920,50
287,99	4028,50
288,47	3838,75
288,94	3950,25
289,41	3702,00
289,89	4011,25
290,36	3778,00
290,83	3911,00
291,30	3840,00
291,78	3929,00
292,25	4086,50
292,72	3812,75
293,20	3990,75
293,67	3838,75
294,14	3938,75
294,62	3899,75
295,09	3779,00
295,56	3886,50
296,03	3898,50
296,51	4056,00
296,98	4038,00
297,45	3924,00
297,93	3916,75
298,40	3939,00
298,87	3794,25
299,34	4026,25
299,82	3851,75
300,29	3911,25
300,76	3794,00
301,23	3969,25
301,71	3955,50
302,18	3962,25
302,65	3788,75
303,12	3931,25
303,60	3962,50
304,07	3799,50
304,54	3830,25
305,01	3803,25
305,49	3909,50
305,96	3933,00
306,43	3921,25
306,90	3918,00
307,38	3859,50
307,85	3845,25
308,32	3911,50
308,79	3829,75
309,27	3980,00
309,74	3970,00
310,21	3913,00
310,68	3903,00
311,15	3901,25
311,63	3814,00
312,10	3985,25
312,57	3877,50
313,04	4099,25
313,51	3814,00
313,99	3845,75
314,46	3902,25
314,93	3826,50
315,40	3831,00
315,87	3994,00
316,34	3939,25
316,82	3900,25
317,29	3923,25
317,76	3891,75
318,23	4181,00
318,70	3846,50
319,17	3874,75
319,65	3774,75
320,12	3947,25
320,59	4071,25
321,06	3984,75
321,53	3862,00
322,00	3715,00
322,48	3775,00
322,95	4050,25
323,42	3860,75
323,89	4151,00
324,36	3758,75
324,83	3903,50
325,30	3855,50
325,78	3878,75
326,25	3828,50
326,72	3843,00
327,19	3934,00
327,66	3904,00
328,13	3933,25
328,60	3890,75
329,07	3854,00
329,54	3857,50
330,02	3822,00
330,49	3791,00
330,96	3973,75
331,43	3925,25
331,90	4095,50
332,37	3804,00
332,84	4085,25
333,31	3944,75
333,78	3925,75
334,25	4024,25
334,72	3906,50
335,20	3941,75
335,67	4285,50
336,14	3793,75
336,61	3876,25
337,08	3827,00
337,55	3927,50
338,02	3849,00
338,49	3850,50
338,96	4055,25
339,43	3992,00
339,90	3773,75
340,37	3827,50
340,84	3776,50
341,31	3949,25
341,78	3990,75
342,25	3847,50
342,72	3901,75
343,19	3962,00
343,67	3914,75
344,14	3844,00
344,61	3901,75
345,08	3801,25
345,55	3877,50
346,02	3976,75
346,49	3858,75
346,96	3814,00
347,43	4065,50
347,90	3833,00
348,37	4007,75
348,84	3900,50
349,31	3767,50
349,78	3883,25
350,25	3966,50
350,72	3871,75
351,19	3811,50
351,66	3909,75
352,13	4102,00
352,60	3942,50
353,07	3870,25
353,54	3899,00
354,01	3939,75
354,48	3921,00
354,94	3961,75
355,41	3920,50
355,88	4054,50
356,35	3820,75
356,82	4041,75
357,29	3792,75
357,76	4127,25
358,23	3982,50
358,70	3765,00
359,17	3819,75
359,64	3831,75
360,11	3844,50
360,58	4004,75
361,05	4071,00
361,52	3868,50
361,99	3884,00
362,46	3885,75
362,93	3869,75
363,39	3884,25
363,86	4135,00
364,33	3950,75
364,80	3842,00
365,27	3971,00
365,74	3849,25
366,21	3789,75
366,68	3901,00
367,15	3877,25
367,62	6732,00
368,09	3691,75
368,55	3818,25
369,02	3995,00
369,49	3780,00
369,96	3984,00
370,43	3922,00
370,90	3834,00
371,37	3845,75
371,84	3943,50
372,31	3796,75
372,77	3763,50
373,24	3858,75
373,71	3893,25
374,18	3776,50
374,65	3820,50
375,12	3904,00
375,59	3733,50
376,05	4013,75
376,52	3867,75
376,99	3805,00
377,46	3802,00
377,93	3914,00
378,40	3906,00
378,86	3885,50
379,33	3891,50
379,80	3860,25
380,27	3935,75
380,74	4034,75
381,21	3895,50
381,67	4009,50
382,14	4021,25
382,61	3752,75
383,08	3926,00
383,55	3879,25
384,02	4008,00
384,48	3920,50
384,95	4453,25
385,42	3899,00
385,89	3855,50
386,36	3869,25
386,82	4078,75
387,29	3806,50
387,76	3766,25
388,23	4000,50
388,69	3915,50
389,16	4009,25
389,63	3839,50
390,10	3961,75
390,57	3888,75
391,03	3966,25
391,50	3937,50
391,97	3886,25
392,44	3921,25
392,90	3853,50
393,37	3878,00
393,84	4132,00
394,31	3868,75
394,77	4013,75
395,24	3840,00
395,71	3964,00
396,18	4427,00
396,64	3765,50
397,11	3958,50
397,58	4014,25
398,05	3823,25
398,51	3892,00
398,98	3825,75
399,45	3801,25
399,92	4032,25
400,38	3778,00
400,85	3934,00
401,32	3866,25
401,78	3953,25
402,25	3907,25
402,72	3904,25
403,18	3837,00
403,65	4077,75
404,12	3905,00
404,59	4045,75
405,05	4095,00
405,52	4034,75
405,99	3830,25
406,45	4004,25
406,92	3947,75
407,39	4115,50
407,85	3914,00
408,32	3933,75
408,79	3969,75
409,25	3820,00
409,72	4017,50
410,19	3825,50
410,65	4045,25
411,12	3854,75
411,59	4040,00
412,05	3865,25
412,52	3754,75
412,99	3943,75
413,45	3910,50
413,92	3942,25
414,39	3951,50
414,85	4111,50
415,32	3889,25
415,78	4077,00
416,25	3972,50
416,72	3935,25
417,18	4124,25
417,65	3950,25
418,12	3917,50
418,58	3955,75
419,05	3933,75
419,51	4007,25
419,98	3853,25
420,45	4003,75
420,91	3846,50
421,38	3916,75
421,84	3868,25
422,31	3962,25
422,78	3873,25
423,24	3920,00
423,71	3937,50
424,17	4027,00
424,64	3914,00
425,11	4024,25
425,57	3911,50
426,04	4075,25
426,50	3896,50
426,97	4070,00
427,43	3985,25
427,90	4011,50
428,37	3819,75
428,83	4007,00
429,30	3974,50
429,76	3924,00
430,23	3958,25
430,69	4267,50
431,16	3817,25
431,62	3886,75
432,09	4104,00
432,55	4057,75
433,02	3924,75
433,48	3877,50
433,95	3945,75
434,42	3900,75
434,88	3998,25
435,35	3828,00
435,81	3987,25
436,28	3974,50
436,74	3806,75
437,21	4029,25
437,67	3987,75
438,14	3946,75
438,60	3881,25
439,07	3917,50
439,53	4360,75
440,00	3989,75
440,46	4009,50
440,93	4088,75
441,39	3873,25
441,86	3897,00
442,32	4237,25
442,79	3846,25
443,25	3967,00
443,72	3970,00
444,18	3817,75
444,64	4161,50
445,11	3985,75
445,57	3943,25
446,04	3957,00
446,50	3987,50
446,97	3908,75
447,43	3994,00
447,90	3876,25
448,36	3882,75
448,83	3997,50
449,29	3998,50
449,75	3927,75
450,22	3877,00
450,68	3837,00
451,15	3910,50
451,61	3960,50
452,08	4030,50
452,54	3853,25
453,00	4049,75
453,47	3958,75
453,93	3921,25
454,40	3964,50
454,86	4016,25
455,32	3892,25
455,79	3961,25
456,25	4066,00
456,72	3905,25
457,18	4124,75
457,64	3939,00
458,11	3954,25
458,57	3848,75
459,04	3989,00
459,50	3960,75
459,96	3985,75
460,43	3909,00
460,89	3836,50
461,36	4124,50
461,82	4044,50
462,28	3886,25
462,75	3841,25
463,21	4062,50
463,67	3920,50
464,14	3977,25
464,60	3979,75
465,06	3840,00
465,53	3920,25
465,99	4057,00
466,45	3967,50
466,92	4015,75
467,38	4027,75
467,84	3931,25
468,31	3992,25
468,77	4003,75
469,23	3941,75
469,70	3887,25
470,16	3990,50
470,62	3976,00
471,09	3906,50
471,55	3917,00
472,01	3871,25
472,48	3910,00
472,94	3928,25
473,40	4109,25
473,87	3956,50
474,33	3895,50
474,79	3933,75
475,25	3835,50
475,72	4007,00
476,18	3949,75
476,64	3995,50
477,11	3943,25
477,57	3977,75
478,03	4099,00
478,49	3981,50
478,96	4074,00
479,42	3884,75
479,88	4155,00
480,35	4016,25
480,81	3981,50
481,27	3929,75
481,73	3961,50
482,20	3980,50
482,66	3874,75
483,12	3949,00
483,58	3848,50
484,05	3940,00
484,51	4110,00
484,97	3966,00
485,43	3939,75
485,89	3785,75
486,36	3900,25
486,82	3805,00
487,28	3996,50
487,74	3825,00
488,21	3836,75
488,67	3901,75
489,13	3975,50
489,59	3968,25
490,05	4069,25
490,52	3835,25
490,98	3965,75
491,44	3841,25
491,90	3880,50
492,36	3796,75
492,83	4045,75
493,29	3955,25
493,75	3962,75
494,21	3891,50
494,67	3908,25
495,14	3894,75
495,60	3869,75
496,06	3978,25
496,52	3900,75
496,98	3951,50
497,44	4154,25
497,91	4038,00
498,37	3892,75
498,83	3953,75
499,29	3892,25
499,75	4200,75
500,21	3948,75
500,67	3889,00
501,14	3948,25
501,60	3898,50
502,06	4004,75
502,52	3959,50
502,98	3928,25
503,44	3942,00
503,90	3996,25
504,37	3901,50
504,83	4012,00
505,29	4011,25
505,75	3865,25
506,21	3945,50
506,67	4036,00
507,13	3943,50
507,59	4036,50
508,05	3995,00
508,51	3895,00
508,98	3878,00
509,44	3843,50
509,90	3916,25
510,36	3941,75
510,82	3900,75
511,28	4105,75
511,74	4107,00
512,20	3858,00
512,66	3813,50
513,12	3919,75
513,58	4003,50
514,04	3765,25
514,51	4054,50
514,97	4153,00
515,43	3806,50
515,89	3973,25
516,35	4042,25
516,81	4041,75
517,27	4237,50
517,73	4000,00
518,19	3948,75
518,65	4365,25
519,11	3954,75
519,57	3896,50
520,03	3855,25
520,49	3921,00
520,95	3981,00
521,41	3997,25
521,87	4045,25
522,33	3962,50
522,79	3844,50
523,25	4147,50
523,71	4065,75
524,17	3919,75
524,63	4153,25
525,09	4015,75
525,55	4031,50
526,01	4107,25
526,47	3985,00
526,93	3989,50
527,39	3948,00
527,85	3979,25
528,31	4059,75
528,77	4056,00
529,23	3959,00
529,69	3878,00
530,15	4050,25
530,61	4072,50
531,07	3877,00
531,53	4086,75
531,99	3968,00
532,45	3977,25
532,91	3962,75
533,37	4016,75
533,83	3960,25
534,29	3871,00
534,75	3980,50
535,21	3939,00
535,67	4022,50
536,12	3910,25
536,58	4042,25
537,04	3882,75
537,50	4040,75
537,96	3978,25
538,42	3974,25
538,88	4166,50
539,34	4055,25
539,80	4597,75
540,26	3832,25
540,72	4174,00
541,18	4000,75
541,63	3886,75
542,09	4041,75
542,55	4021,00
543,01	3920,25
543,47	4281,00
543,93	3882,00
544,39	4200,25
544,85	4074,50
545,31	3951,25
545,76	3963,00
546,22	4085,75
546,68	3998,00
547,14	4030,00
547,60	4065,25
548,06	4011,25
548,52	3998,00
548,98	3975,00
549,43	3907,50
549,89	4243,75
550,35	3940,50
550,81	3887,75
551,27	4048,75
551,73	3998,25
552,19	4216,50
552,64	3994,00
553,10	3891,25
553,56	4049,00
554,02	3945,50
554,48	3881,50
554,93	4048,25
555,39	4010,75
555,85	4168,25
556,31	4000,50
556,77	4138,25
557,23	3845,25
557,68	4005,25
558,14	4215,00
558,60	3941,25
559,06	3952,25
559,52	3884,50
559,97	3931,25
560,43	3915,00
560,89	3999,50
561,35	3959,75
561,81	3992,00
562,26	3913,75
562,72	3944,75
563,18	3996,25
563,64	4105,25
564,09	3906,50
564,55	4010,00
565,01	3952,25
565,47	3926,75
565,92	4006,75
566,38	4095,50
566,84	3958,75
567,30	3941,75
567,75	3969,75
568,21	4091,50
568,67	3931,00
569,13	3966,25
569,58	4069,50
570,04	3978,50
570,50	3969,50
570,96	4073,00
571,41	4065,00
571,87	3982,50
572,33	4022,00
572,78	4034,50
573,24	3916,00
573,70	3929,50
574,16	3990,50
574,61	4107,75
575,07	4094,75
575,53	3887,50
575,98	4007,50
576,44	3822,50
576,90	4108,75
577,36	3925,75
577,81	3954,00
578,27	3884,00
578,73	4121,00
579,18	4035,50
579,64	3959,25
580,10	4029,75
580,55	4040,75
581,01	3970,75
581,47	3977,75
581,92	4002,25
582,38	3988,00
582,84	3875,00
583,29	3995,25
583,75	4032,25
584,21	3973,50
584,66	4053,50
585,12	3957,00
585,57	4277,50
586,03	3982,75
586,49	3988,25
586,94	3951,50
587,40	3977,00
587,86	4106,75
588,31	3886,75
588,77	4021,75
589,22	3944,75
589,68	3885,50
590,14	4031,25
590,59	4055,25
591,05	3953,50
591,51	3827,25
591,96	4141,25
592,42	3940,00
592,87	4011,50
593,33	3945,50
593,78	4066,00
594,24	3967,50
594,70	3952,25
595,15	4126,75
595,61	3928,00
596,06	3915,75
596,52	4181,75
596,98	4075,00
597,43	4132,00
597,89	3986,75
598,34	3880,75
598,80	3995,75
599,25	4125,50
599,71	3933,50
600,16	4049,50
600,62	4113,50
601,08	4051,50
601,53	4059,75
601,99	3859,50
602,44	4323,25
602,90	3959,75
603,35	4017,50
603,81	3894,75
604,26	3847,00
604,72	4053,75
605,17	3990,75
605,63	4040,75
606,08	4007,25
606,54	3885,00
606,99	3985,25
607,45	3959,50
607,90	3999,50
608,36	4056,00
608,81	3995,50
609,27	4276,00
609,72	4101,50
610,18	3979,75
610,63	3949,50
611,09	4008,50
611,54	3901,75
612,00	4216,25
612,45	4064,75
612,91	3992,00
613,36	4355,00
613,82	3883,00
614,27	3880,25
614,73	3896,50
615,18	3873,75
615,64	3989,50
616,09	3983,75
616,54	3906,00
617,00	3990,25
617,45	3989,50
617,91	4074,50
618,36	3944,75
618,82	3952,25
619,27	3986,00
619,72	4093,75
620,18	3978,00
620,63	4087,25
621,09	4129,75
621,54	3993,00
622,00	4093,75
622,45	4143,25
622,90	4100,50
623,36	3929,50
623,81	3924,25
624,27	4115,00
624,72	3883,25
625,17	3998,50
625,63	4023,50
626,08	3905,50
626,54	3986,75
626,99	4039,25
627,44	3889,50
627,90	4051,50
628,35	4064,75
628,81	3843,50
629,26	3953,25
629,71	4008,75
630,17	3943,00
630,62	4052,00
631,07	3968,75
631,53	4081,25
631,98	4043,50
632,43	4126,00
632,89	3924,50
633,34	3949,75
633,79	3907,50
634,25	3940,75
634,70	3913,75
635,15	3960,00
635,61	3910,25
636,06	3882,75
636,51	3984,25
636,97	3975,75
637,42	3911,75
637,87	4050,25
638,33	4095,25
638,78	3928,75
639,23	3988,50
639,69	3880,00
640,14	3822,25
640,59	4026,00
641,05	4082,25
641,50	3881,25
641,95	3955,75
642,40	3930,75
642,86	3859,75
643,31	3919,25
643,76	4053,25
644,22	3944,50
644,67	3885,50
645,12	3950,50
645,57	3908,50
646,03	3979,00
646,48	3973,00
646,93	4005,00
647,38	4048,75
647,84	3966,25
648,29	3997,00
648,74	3871,75
649,19	4098,00
649,65	4036,75
650,10	4468,50
650,55	3873,75
651,00	3889,25
651,46	3915,50
651,91	3984,50
652,36	3896,00
652,81	3982,50
653,27	3937,25
653,72	3902,25
654,17	3996,25
654,62	3993,75
655,07	3904,25
655,53	3849,00
655,98	4042,00
656,43	3903,25
656,88	3951,00
657,33	4032,00
657,79	4051,50
658,24	3897,25
658,69	3995,00
659,14	3881,25
659,59	4481,00
660,05	3926,00
660,50	4091,00
660,95	3944,75
661,40	3897,00
661,85	3938,00
662,30	3888,00
662,76	3844,75
663,21	4028,50
663,66	3935,75
664,11	3917,25
664,56	3948,50
665,01	3870,75
665,47	3995,25
665,92	3872,75
666,37	4009,50
666,82	3988,00
667,27	4246,00
667,72	4117,25
668,17	3907,75
668,62	4003,50
669,08	3909,25
669,53	4209,50
669,98	3834,75
670,43	3897,00
670,88	4110,00
671,33	3987,50
671,78	4163,00
672,23	4268,50
672,69	3962,75
673,14	3987,75
673,59	4079,25
674,04	4316,00
674,49	4006,75
674,94	4013,25
675,39	3834,75
675,84	3863,00
676,29	4003,25
676,74	3938,25
677,19	3952,50
677,64	3948,25
678,10	4275,00
678,55	3926,50
679,00	3927,25
679,45	3977,75
679,90	3914,25
680,35	3987,00
680,80	3966,75
681,25	3790,00
681,70	3791,25
682,15	3944,50
682,60	3980,75
683,05	4034,00
683,50	4058,50
683,95	3985,50
684,40	4125,00
684,85	4025,25
685,30	4020,75
685,75	4011,50
686,20	3923,25
686,65	3831,75
687,10	3914,25
687,55	3897,50
688,00	3942,00
688,45	3932,25
688,90	4267,75
689,35	4006,25
689,80	3792,50
690,25	3937,75
690,70	3934,00
691,15	3819,00
691,60	3947,00
692,05	3827,50
692,50	3960,75
692,95	3914,50
693,40	4009,00
693,85	4005,75
694,30	3940,25
694,75	3979,25
695,20	4469,25
695,65	3981,50
696,10	3992,25
696,55	4192,50
697,00	3994,75
697,45	3924,00
697,90	4012,25
698,35	3890,50
698,80	4054,25
699,24	4046,00
699,69	3903,00
700,14	3938,25
700,59	4030,25
701,04	4051,00
701,49	4426,50
701,94	3851,25
702,39	4127,00
702,84	3917,75
703,29	3930,25
703,74	3998,75
704,19	3944,75
704,63	3943,25
705,08	4124,75
705,53	4100,75
705,98	4073,00
706,43	3863,50
706,88	4070,75
707,33	4005,50
707,78	3954,25
708,22	4048,00
708,67	4089,50
709,12	4015,50
709,57	3948,75
710,02	3988,00
710,47	3993,25
710,92	3932,75
711,37	4055,50
711,81	4012,75
712,26	4002,25
712,71	3927,50
713,16	4223,00
713,61	3967,50
714,06	3979,00
714,50	4147,25
714,95	4104,00
715,40	3981,75
715,85	4005,00
716,30	3909,00
716,75	3889,25
717,19	3819,00
717,64	3793,75
718,09	3987,25
718,54	4126,25
718,99	3829,50
719,43	3832,00
719,88	3934,50
720,33	3932,00
720,78	3912,25
721,23	3975,00
721,67	3918,75
722,12	4045,75
722,57	3946,75
723,02	3821,00
723,47	3801,50
723,91	3959,25
724,36	3763,25
724,81	3995,25
725,26	3786,50
725,70	3926,75
726,15	3927,25
726,60	3954,00
727,05	4174,50
727,49	3854,50
727,94	4081,50
728,39	4040,50
728,84	3915,75
729,28	4079,75
729,73	3899,75
730,18	4045,75
730,63	3873,50
731,07	3974,00
731,52	4025,25
731,97	4017,75
732,41	4005,75
732,86	3939,75
733,31	4080,75
733,76	4041,25
734,20	3945,00
734,65	4099,50
735,10	4079,50
735,54	4012,25
735,99	4357,50
736,44	3948,75
736,89	4029,50
737,33	4130,25
737,78	4103,50
738,23	4011,50
738,67	3995,75
739,12	4051,00
739,57	3946,75
740,01	4161,50
740,46	4079,75
740,91	3950,25
741,35	4054,50
741,80	4121,25
742,25	4028,50
742,69	4057,75
743,14	3954,50
743,59	3967,50
744,03	4037,75
744,48	4177,50
744,92	4153,50
745,37	4137,25
745,82	4149,00
746,26	4204,75
746,71	3857,50
747,16	3971,25
747,60	3909,50
748,05	4100,75
748,49	4035,50
748,94	4029,25
749,39	4094,00
749,83	4401,00
750,28	4071,75
750,73	4026,50
751,17	3945,25
751,62	4015,00
752,06	4014,00
752,51	4042,25
752,95	4277,75
753,40	3993,50
753,85	4030,00
754,29	3939,00
754,74	4025,25
755,18	3940,75
755,63	4047,75
756,07	4072,25
756,52	4187,50
756,97	4007,00
757,41	4165,00
757,86	4029,50
758,30	3989,50
758,75	3968,75
759,19	3932,75
759,64	3805,50
760,08	3856,25
760,53	3908,00
760,98	3881,00
761,42	3970,75
761,87	4065,75
762,31	3858,75
762,76	3797,75
763,20	3881,25
763,65	3986,50
764,09	3926,25
764,54	3832,75
764,98	3903,25
765,43	4035,25
765,87	3889,50
766,32	3871,75
766,76	3956,75
767,21	4012,25
767,65	4023,25
768,10	4056,50
768,54	4101,00
768,99	4037,25
769,43	4254,75
769,88	3954,50
770,32	4011,00
770,77	3970,50
771,21	3932,75
771,65	4080,25
772,10	4047,75
772,54	4066,00
772,99	3892,00
773,43	3993,75
773,88	4009,00
774,32	3893,75
774,77	4034,00
775,21	3974,50
775,65	4041,75
776,10	4051,75
776,54	3928,50
776,99	4018,75
777,43	3989,00
777,88	4082,00
778,32	4086,00
778,76	4005,00
779,21	4075,00
779,65	4352,25
780,10	4192,75
780,54	4039,00
780,99	4139,25
781,43	4106,50
781,87	3943,25
782,32	4053,00
782,76	3922,50
783,20	4000,50
783,65	4098,50
784,09	4114,00
784,54	4012,00
784,98	3981,50
785,42	4005,00
785,87	3930,00
786,31	4073,50
786,75	4131,00
787,20	4136,50
787,64	3945,25
788,09	3945,50
788,53	4030,75
788,97	3913,75
789,42	3968,75
789,86	3953,50
790,30	4013,25
790,75	3903,25
791,19	3904,75
791,63	4130,75
792,08	3966,25
792,52	4017,50
792,96	3929,25
793,41	4496,25
793,85	4119,75
794,29	3996,00
794,74	4034,00
795,18	4003,00
795,62	3905,00
796,06	4027,50
796,51	3975,75
796,95	4011,25
797,39	3944,25
797,84	3889,75
798,28	3986,00
798,72	4091,75
799,16	3984,25
799,61	3900,00
800,05	4135,00
800,49	4015,75
800,94	3907,75
801,38	4000,50
801,82	4007,25
802,26	3896,00
802,71	4079,25
803,15	4196,75
803,59	4059,75
804,03	4012,00
804,48	3974,25
804,92	3947,75
805,36	4193,25
805,80	4237,75
806,25	4189,25
806,69	4080,00
807,13	4217,50
807,57	3970,75
808,01	3972,50
808,46	3892,50
808,90	4028,25
809,34	4015,75
809,78	3944,25
810,23	3871,25
810,67	4010,50
811,11	4098,50
811,55	4366,25
811,99	3899,50
812,44	3880,75
812,88	4016,75
813,32	4135,25
813,76	4029,75
814,20	3952,50
814,64	4007,50
815,09	3984,75
815,53	3939,50
815,97	3871,25
816,41	3830,75
816,85	3874,25
817,29	4010,00
817,74	3928,25
818,18	4063,50
818,62	3885,75
819,06	3986,75
819,50	4063,25
819,94	3921,00
820,39	4004,50
820,83	3906,25
821,27	3952,25
821,71	3830,25
822,15	4092,00
822,59	3828,00
823,03	3945,25
823,47	3965,25
823,92	3868,25
824,36	3966,50
824,80	3924,50
825,24	3977,25
825,68	3998,50
826,12	3840,50
826,56	3917,50
827,00	3771,25
827,44	3925,75
827,88	3999,25
828,33	4073,75
828,77	3882,50
829,21	4020,25
829,65	3977,00
830,09	3895,00
830,53	4116,75
830,97	3920,50
831,41	4220,25
831,85	4051,25
832,29	4007,25
832,73	3816,00
833,17	3952,00
833,61	3923,50
834,05	4123,25
834,49	4018,50
834,93	3939,00
835,37	3908,25
835,82	4084,00
836,26	3927,50
836,70	3988,50
837,14	3956,75
837,58	4057,00
838,02	3867,25
838,46	3894,75
838,90	3989,75
839,34	3959,00
839,78	4156,25
840,22	4235,50
840,66	3984,25
841,10	4104,75
841,54	3827,00
841,98	3935,25
842,42	3875,25
842,86	3923,75
843,30	4034,75
843,74	3974,75
844,18	4043,50
844,62	3933,75
845,06	3895,50
845,50	4022,00
845,94	3953,50
846,37	4064,75
846,81	3921,75
847,25	3885,75
847,69	3985,50
848,13	3925,00
848,57	3944,50
849,01	3904,00
849,45	4020,75
849,89	4134,25
850,33	4057,00
850,77	3945,25
851,21	4055,50
851,65	3879,25
852,09	4004,75
852,53	4076,00
852,97	3910,25
853,40	3899,50
853,84	4026,75
854,28	3837,75
854,72	4043,50
855,16	3847,25
855,60	3894,00
856,04	4065,50
856,48	4128,25
856,92	3965,00
857,36	4021,00
857,79	3970,75
858,23	3863,75
858,67	4098,00
859,11	3799,75
859,55	3897,25
859,99	3927,25
860,43	3945,00
860,87	4030,50
861,30	4041,00
861,74	3909,75
862,18	3950,75
862,62	4020,00
863,06	3912,75
863,50	3910,50
863,94	4047,75
864,37	3888,75
864,81	3961,50
865,25	3936,25
865,69	3822,50
866,13	3931,00
866,57	3813,75
867,00	4038,00
867,44	3886,25
867,88	4008,25
868,32	3949,50
868,76	3917,50
869,19	4007,50
869,63	3966,50
870,07	4167,50
870,51	4273,75
870,95	3857,25
871,38	3916,00
871,82	3942,50
872,26	3883,25
872,70	3963,50
873,14	4000,25
873,57	3946,75
874,01	4073,75
874,45	4042,50
874,89	3950,75
875,32	3898,25
875,76	4072,00
876,20	3812,75
876,64	3995,25
877,07	3951,00
877,51	3952,75
877,95	3953,00
878,39	3932,50
878,82	3982,50
879,26	3927,25
879,70	4150,00
880,14	3863,00
880,57	3886,00
881,01	3910,25
881,45	3964,50
881,89	4023,00
882,32	3944,00
882,76	3946,00
883,20	3933,25
883,63	3912,75
884,07	3868,50
884,51	4023,00
884,94	3937,25
885,38	3993,25
885,82	4042,00
886,26	3897,50
886,69	3853,00
887,13	4153,50
887,57	3847,75
888,00	3857,25
888,44	3931,50
888,88	3907,50
889,31	4323,25
889,75	3826,75
890,19	4034,50
890,62	3894,00
891,06	3989,50
891,50	4005,25
891,93	3824,50
892,37	3890,00
892,81	3904,25
893,24	3835,00
893,68	3870,75
894,11	3951,00
894,55	3864,50
894,99	3979,00
895,42	3868,50
895,86	3814,75
896,30	3901,00
896,73	3941,25
897,17	3836,25
897,60	3779,75
898,04	3812,25
898,48	3890,00
898,91	4002,25
899,35	3812,00
899,78	3828,50
900,22	3813,50
900,66	3989,75
901,09	3916,50
901,53	3829,25
901,96	4127,00
902,40	4117,00
902,84	3798,25
903,27	3882,75
903,71	4084,50
904,14	3835,75
904,58	3945,25
905,01	3844,00
905,45	3869,50
905,88	3798,25
906,32	4019,25
906,76	3873,75
907,19	3998,50
907,63	3910,50
908,06	3846,00
908,50	3960,25
908,93	4048,75
909,37	3857,50
909,80	3747,75
910,24	3919,50
910,67	3898,50
911,11	3848,75
911,54	3822,50
911,98	3823,25
912,41	3897,00
912,85	3838,50
913,28	3912,50
913,72	3919,00
914,15	3847,75
914,59	3785,50
915,02	3792,00
915,46	3827,50
915,89	3817,75
916,33	3986,25
916,76	3820,50
917,20	3988,25
917,63	3815,50
918,07	3947,00
918,50	3830,75
918,94	3883,50
919,37	3862,25
919,81	3936,50
920,24	3958,25
920,67	3898,00
921,11	4050,50
921,54	3960,75
921,98	3855,75
922,41	3804,75
922,85	3770,50
923,28	3919,75
923,72	4051,25
924,15	3940,25
924,58	3740,00
925,02	3950,75
925,45	3805,50
925,89	3963,75
926,32	4132,00
926,75	3846,25
927,19	3936,25
927,62	3748,00
928,06	4105,25
928,49	3861,50
928,92	3746,50
929,36	3953,75
929,79	3817,75
930,23	3872,75
930,66	3926,50
931,09	3780,75
931,53	3879,75
931,96	3674,75
932,39	4025,50
932,83	3948,75
933,26	4164,25
933,70	3816,75
934,13	3943,75
934,56	3929,50
935,00	3897,50
935,43	3873,25
935,86	3715,50
936,30	3799,00
936,73	3766,25
937,16	3861,25
937,60	3745,00
938,03	3914,00
938,46	3745,25
938,90	3821,50
939,33	3911,50
939,76	3738,50
940,19	3819,50
940,63	3951,25
941,06	4069,75
941,49	3760,00
941,93	3944,00
942,36	3757,75
942,79	3796,25
943,23	3909,75
943,66	3714,25
944,09	3701,50
944,52	3904,50
944,96	3874,75
945,39	3880,00
945,82	3827,25
946,26	3851,75
946,69	3859,50
947,12	3974,25
947,55	3856,00
947,99	3822,00
948,42	3908,50
948,85	3706,25
949,28	3741,25
949,72	3729,50
950,15	4138,25
950,58	3956,00
951,01	3796,50
951,45	3814,75
951,88	3850,50
952,31	3705,00
952,74	3932,50
953,17	3787,00
953,61	4028,50
954,04	3714,00
954,47	3772,00
954,90	3788,00
955,33	3783,00
955,77	3785,75
956,20	3895,00
956,63	3746,00
957,06	3897,50
957,49	4195,75
957,93	3713,25
958,36	3898,00
958,79	3842,50
959,22	3779,75
959,65	3759,50
960,08	3791,00
960,52	3660,00
960,95	3801,25
961,38	3915,75
961,81	3874,75
962,24	3947,75
962,67	3935,25
963,11	3795,00
963,54	3839,50
963,97	3820,75
964,40	3873,75
964,83	3832,25
965,26	3799,50
965,69	3930,50
966,13	3809,25
966,56	3833,50
966,99	3928,50
967,42	3787,00
967,85	3805,50
968,28	3990,00
968,71	4372,00
969,14	3910,00
969,57	3862,25
970,01	3883,00
970,44	3759,25
970,87	3822,00
971,30	3882,25
971,73	3812,00
972,16	3838,00
972,59	3715,50
973,02	3786,50
973,45	3852,75
973,88	3931,75
974,31	3830,50
974,74	3954,25
975,17	3864,75
975,61	3781,50
976,04	3806,50
976,47	3794,50
976,90	3895,75
977,33	3775,25
977,76	3919,00
978,19	3862,00
978,62	3816,75
979,05	3820,00
979,48	3826,00
979,91	3968,25
980,34	3922,75
980,77	3806,50
981,20	3895,50
981,63	3967,50
982,06	3865,00
982,49	3865,75
982,92	3812,25
983,35	3830,75
983,78	3812,25
984,21	3975,50
984,64	3923,00
985,07	3769,25
985,50	3714,50
985,93	3834,75
986,36	3939,00
986,79	3842,00
987,22	3788,00
987,65	3914,25
988,08	3853,75
988,51	3890,25
988,94	3852,75
989,37	3906,75
989,80	3884,75
990,23	3838,50
990,66	3930,25
991,09	3889,00
991,51	3931,50
991,94	4095,00
992,37	3833,75
992,80	3784,00
993,23	3873,75
993,66	3828,50
994,09	3842,50
994,52	3931,25
994,95	3949,75
995,38	3897,75
995,81	3899,50
996,24	3746,50
996,67	3766,25
997,09	3709,75
997,52	3990,75
997,95	3959,75
998,38	3832,50
998,81	3891,50
999,24	3805,75
999,67	4065,75
1000,10	3852,50
1000,53	3890,50
1000,95	3991,50
1001,38	3787,25
1001,81	3875,25
1002,24	3949,50
1002,67	3856,50
1003,10	3906,00
1003,53	3857,50
1003,95	3934,25
1004,38	3775,50
1004,81	3892,75
1005,24	3878,25
1005,67	4020,50
1006,10	3856,50
1006,52	3759,00
1006,95	3919,00
1007,38	3850,00
1007,81	3793,50
1008,24	3739,25
1008,67	3854,50
1009,09	3796,50
1009,52	4304,50
1009,95	3966,25
1010,38	3950,00
1010,81	3919,75
1011,23	3936,75
1011,66	3991,00
1012,09	3855,75
1012,52	3921,25
1012,95	3897,75
1013,37	3906,75
1013,80	3923,25
1014,23	3774,75
1014,66	4021,25
1015,08	3736,50
1015,51	3948,50
1015,94	3790,50
1016,37	3854,50
1016,80	3802,00
1017,22	3903,00
1017,65	3829,75
1018,08	6781,00
1018,51	3781,50
1018,93	3739,00
1019,36	4225,25
1019,79	3998,75
1020,21	3919,25
1020,64	3859,00
1021,07	3858,25
1021,50	3882,00
1021,92	3907,00
1022,35	3904,50
1022,78	3881,50
1023,21	4311,25
1023,63	3988,00
1024,06	3983,75
1024,49	3927,00
1024,91	3899,00
1025,34	3893,25
1025,77	3965,75
1026,19	3797,75
1026,62	3785,25
1027,05	4137,50
1027,47	3949,75
1027,90	3906,75
1028,33	3866,00
1028,75	3899,75
1029,18	3822,00
1029,61	4124,00
1030,03	3899,00
1030,46	3886,50
1030,89	3932,00
1031,31	4009,00
1031,74	3744,75
1032,17	3888,75
1032,59	3932,75
1033,02	3833,00
1033,45	3980,00
1033,87	3781,75
1034,30	3811,00
1034,73	3896,50
1035,15	3988,00
1035,58	3810,25
1036,00	4063,75
1036,43	3803,00
1036,86	3809,25
1037,28	3862,25
1037,71	3736,75
1038,13	3934,00
1038,56	3947,50
1038,99	3952,75
1039,41	3963,25
1039,84	4046,00
1040,26	3844,50
1040,69	3838,50
1041,11	3894,25
1041,54	3834,00
1041,97	4020,50
1042,39	3997,75
1042,82	3919,00
1043,24	3964,75
1043,67	3841,50
1044,09	3950,50
1044,52	3775,50
1044,95	3844,50
1045,37	3826,50
1045,80	3774,75
1046,22	3893,00
1046,65	3934,50
1047,07	3794,75
1047,50	3930,00
1047,92	3944,50
1048,35	3762,25
1048,77	3963,75
1049,20	3918,50
1049,62	3938,00
1050,05	3830,75
1050,47	3818,75
1050,90	3915,75
1051,32	3967,25
1051,75	4021,50
1052,17	3975,50
1052,60	3841,50
1053,02	4013,50
1053,45	3706,00
1053,87	3853,00
1054,30	3694,50
1054,72	3850,00
1055,15	3795,00
1055,57	3902,50
1056,00	3917,75
1056,42	4077,75
1056,85	3971,00
1057,27	3951,50
1057,70	3859,75
1058,12	4316,75
1058,54	3763,00
1058,97	3913,50
1059,39	3941,50
1059,82	3840,75
1060,24	3825,50
1060,67	3805,50
1061,09	3944,75
1061,51	3891,25
1061,94	3798,00
1062,36	3934,50
1062,79	4020,25
1063,21	3874,50
1063,64	3843,75
1064,06	3791,25
1064,48	3981,25
1064,91	3953,00
1065,33	3814,25
1065,76	3764,25
1066,18	3729,25
1066,60	3960,00
1067,03	3839,75
1067,45	3837,50
1067,87	3895,25
1068,30	3787,00
1068,72	4043,50
1069,15	3874,75
1069,57	3811,75
1069,99	3727,25
1070,42	3954,00
1070,84	3952,75
1071,26	3970,25
1071,69	3823,75
1072,11	3931,50
1072,53	3798,25
1072,96	3758,25
1073,38	3772,00
1073,80	3937,00
1074,23	3785,50
1074,65	3734,00
1075,07	3804,00
1075,50	3792,75
1075,92	3871,50
1076,34	3786,00
1076,77	3748,00
1077,19	3826,50
1077,61	3940,00
1078,04	3821,75
1078,46	3932,00
1078,88	4011,75
1079,30	3640,50
1079,73	3856,25
1080,15	3832,75
1080,57	3826,75
1081,00	3900,75
1081,42	3855,75
1081,84	3804,50
1082,26	3870,25
1082,69	3833,75
1083,11	3835,00
1083,53	3850,00
1083,95	3844,00
1084,38	3953,00
1084,80	3836,75
1085,22	3813,50
1085,64	3964,50
1086,07	3767,50
1086,49	3813,75
1086,91	3865,25
1087,33	3690,50
1087,76	3930,00
1088,18	6971,25
1088,60	3852,00
1089,02	3768,25
1089,45	3791,00
1089,87	3803,00
1090,29	3985,50
1090,71	3843,50
1091,13	3748,00
1091,56	3802,50
1091,98	3801,00
1092,40	3761,75
1092,82	3833,75
1093,24	3786,25
1093,66	3823,50
1094,09	3787,50
1094,51	3838,25
1094,93	3794,25
1095,35	3842,25
1095,77	3776,50
1096,19	3856,75
1096,62	3868,25
1097,04	3721,00
1097,46	3856,50
1097,88	3766,00
1098,30	3901,50
1098,72	3893,75
1099,15	3914,50
1099,57	3810,00
1099,99	3841,00
1100,41	3761,75
1100,83	3798,00
1101,25	3771,50
1101,67	3827,75
1102,09	3718,25
1102,52	3753,50
1102,94	3823,00
1103,36	3809,50
1103,78	3834,00
1104,20	3765,00
1104,62	3996,25
1105,04	3632,25
1105,46	3842,25
1105,88	3790,75
1106,30	3726,25
1106,73	3801,00
1107,15	3612,75
1107,57	3674,50
1107,99	3914,75
1108,41	3687,25
1108,83	3851,50
1109,25	3834,50
1109,67	3835,00
1110,09	3661,00
1110,51	3748,75
1110,93	3679,25
1111,35	3762,50
1111,77	3660,25
1112,19	3669,00
1112,61	3634,50
1113,03	3736,25
1113,45	3698,75
1113,87	3679,25
1114,29	3789,25
1114,71	3822,75
1115,13	3735,75
1115,55	3759,50
1115,98	3709,50
1116,40	3821,25
1116,82	3774,25
1117,24	3762,50
1117,66	3660,00
1118,08	2150,00
1118,50	2185,25
1118,91	2185,50
1119,33	2186,75
>>>>>End Processed Spectral Data<<<<<
