SpectraSuite Data File
++++++++++++++++++++++++++++++++++++
Date: Thu Jan 16 15:19:20 EET 2014
User: OO Maya
Dark Spectrum Present: No
Reference Spectrum Present: No
Number of Sampled Component Spectra: 1
Spectrometers: MAYP11278
Integration Time (usec): 500000 (MAYP11278)
Spectra Averaged: 2 (MAYP11278)
Boxcar Smoothing: 0 (MAYP11278)
Correct for Electrical Dark: No (MAYP11278)
Strobe/Lamp Enabled: No (MAYP11278)
Correct for Detector Non-linearity: No (MAYP11278)
Correct for Stray Light: No (MAYP11278)
Number of Pixels in Processed Spectrum: 2068
>>>>>Begin Processed Spectral Data<<<<<
188,05	2277,50
188,53	2208,00
189,01	2173,00
189,49	2175,00
189,96	2508,50
190,44	2531,50
190,92	2532,00
191,40	2536,50
191,88	2568,50
192,36	2526,50
192,83	2508,00
193,31	2498,00
193,79	2514,00
194,27	2529,50
194,75	2545,50
195,23	2532,00
195,70	2549,50
196,18	2525,50
196,66	2526,00
197,14	2624,00
197,62	2526,00
198,09	2511,00
198,57	2525,00
199,05	2520,00
199,53	2538,50
200,01	2571,50
200,48	2526,50
200,96	2532,50
201,44	2559,50
201,92	2548,00
202,39	2565,00
202,87	2513,00
203,35	2544,00
203,83	2505,50
204,31	2565,00
204,78	2561,50
205,26	2532,00
205,74	2525,00
206,22	2573,50
206,69	2537,50
207,17	2548,00
207,65	2617,50
208,13	2544,50
208,60	2561,50
209,08	2541,00
209,56	2569,00
210,04	2547,50
210,51	2551,50
210,99	2519,00
211,47	2550,50
211,94	2523,50
212,42	2529,50
212,90	2591,50
213,38	2553,50
213,85	2527,00
214,33	2605,50
214,81	2545,50
215,29	2587,50
215,76	2554,50
216,24	2549,00
216,72	2577,50
217,19	2565,00
217,67	2545,00
218,15	2540,50
218,62	2594,50
219,10	2509,00
219,58	2525,00
220,05	2524,50
220,53	2550,00
221,01	2676,50
221,49	2543,00
221,96	2569,50
222,44	2536,50
222,92	2564,00
223,39	2549,50
223,87	2562,00
224,35	2543,50
224,82	2531,00
225,30	2534,00
225,78	2538,00
226,25	2527,00
226,73	2560,00
227,21	2578,00
227,68	2544,50
228,16	2554,00
228,63	2570,50
229,11	2566,50
229,59	2542,50
230,06	2558,00
230,54	2535,50
231,02	2559,00
231,49	2587,50
231,97	2561,00
232,45	2552,00
232,92	2517,50
233,40	2548,00
233,87	2557,50
234,35	2649,50
234,83	2545,00
235,30	2538,00
235,78	2534,50
236,25	2506,00
236,73	2580,50
237,21	2611,50
237,68	2557,50
238,16	2562,50
238,63	2550,00
239,11	2560,50
239,59	2549,00
240,06	2509,50
240,54	2562,50
241,01	2590,00
241,49	2553,00
241,96	2556,00
242,44	2582,00
242,92	2597,00
243,39	2516,00
243,87	2542,00
244,34	2585,00
244,82	2597,50
245,29	2547,00
245,77	2584,00
246,24	2589,00
246,72	2527,50
247,20	2548,50
247,67	2538,00
248,15	2559,00
248,62	2570,50
249,10	2517,00
249,57	2568,00
250,05	2570,00
250,52	2551,50
251,00	2592,00
251,47	2551,00
251,95	2619,50
252,42	2592,50
252,90	2529,50
253,37	2584,50
253,85	2554,50
254,32	2553,50
254,80	2566,00
255,27	2583,50
255,75	2583,00
256,22	2531,00
256,70	2564,00
257,17	2569,50
257,65	2592,00
258,12	2635,50
258,60	2561,00
259,07	2535,00
259,55	2559,50
260,02	2592,00
260,50	2605,50
260,97	2562,00
261,45	2537,50
261,92	2599,50
262,40	2530,00
262,87	2555,50
263,35	2547,50
263,82	2522,50
264,30	2581,50
264,77	2590,50
265,25	2546,00
265,72	2551,50
266,19	2565,00
266,67	2568,00
267,14	2538,50
267,62	2543,00
268,09	2565,00
268,57	2571,50
269,04	2511,50
269,51	2543,50
269,99	2557,00
270,46	2569,50
270,94	2588,50
271,41	2555,50
271,89	2556,00
272,36	2527,50
272,83	2539,00
273,31	2501,50
273,78	2550,00
274,26	2669,00
274,73	2595,00
275,20	2579,50
275,68	2538,50
276,15	2556,50
276,63	2568,50
277,10	2581,00
277,57	2515,00
278,05	2559,50
278,52	2519,00
279,00	2704,00
279,47	2552,50
279,94	2547,00
280,42	2679,00
280,89	2593,00
281,36	2657,00
281,84	2534,50
282,31	2595,50
282,78	2558,00
283,26	2559,00
283,73	2562,00
284,21	2538,50
284,68	2534,50
285,15	2576,00
285,63	2561,00
286,10	2560,50
286,57	2575,50
287,05	2522,00
287,52	2583,50
287,99	2616,00
288,47	2539,00
288,94	2576,00
289,41	2531,00
289,89	2590,00
290,36	2535,00
290,83	2560,00
291,30	2551,50
291,78	2575,50
292,25	2624,00
292,72	2543,50
293,20	2607,50
293,67	2539,50
294,14	2578,50
294,62	2579,50
295,09	2543,00
295,56	2565,50
296,03	2593,50
296,51	2604,00
296,98	2608,50
297,45	2574,50
297,93	2573,50
298,40	2576,50
298,87	2543,50
299,34	2601,50
299,82	2572,00
300,29	2560,00
300,76	2552,00
301,23	2592,50
301,71	2582,50
302,18	2595,50
302,65	2535,50
303,12	2584,00
303,60	2597,50
304,07	2540,00
304,54	2547,00
305,01	2542,50
305,49	2568,00
305,96	2573,50
306,43	2572,00
306,90	2567,50
307,38	2549,00
307,85	2552,50
308,32	2567,00
308,79	2550,00
309,27	2599,00
309,74	2583,00
310,21	2570,00
310,68	2581,00
311,15	2579,50
311,63	2539,50
312,10	2604,50
312,57	2559,50
313,04	2644,50
313,51	2552,50
313,99	2556,50
314,46	2547,50
314,93	2556,50
315,40	2532,50
315,87	2592,00
316,34	2583,50
316,82	2587,50
317,29	2585,50
317,76	2565,50
318,23	2638,00
318,70	2565,50
319,17	2568,00
319,65	2530,00
320,12	2569,00
320,59	2631,00
321,06	2593,50
321,53	2581,50
322,00	2525,50
322,48	2534,50
322,95	2623,00
323,42	2564,50
323,89	2625,00
324,36	2521,00
324,83	2574,00
325,30	2578,00
325,78	2567,50
326,25	2554,00
326,72	2548,00
327,19	2578,50
327,66	2580,50
328,13	2582,50
328,60	2568,00
329,07	2558,00
329,54	2560,00
330,02	2561,50
330,49	2561,00
330,96	2576,00
331,43	2594,00
331,90	2624,50
332,37	2536,50
332,84	2630,50
333,31	2590,00
333,78	2596,50
334,25	2613,00
334,72	2573,50
335,20	2597,00
335,67	2695,00
336,14	2553,50
336,61	2586,00
337,08	2573,50
337,55	2602,00
338,02	2567,00
338,49	2576,00
338,96	2658,00
339,43	2619,50
339,90	2564,00
340,37	2565,00
340,84	2562,00
341,31	2608,00
341,78	2624,50
342,25	2570,00
342,72	2617,00
343,19	2612,50
343,67	2611,00
344,14	2598,50
344,61	2598,50
345,08	2587,50
345,55	2610,50
346,02	2647,50
346,49	2615,50
346,96	2640,00
347,43	2698,50
347,90	2637,00
348,37	2703,50
348,84	2678,00
349,31	2662,50
349,78	2709,50
350,25	2778,50
350,72	2753,50
351,19	2771,00
351,66	2825,00
352,13	2921,00
352,60	2909,50
353,07	2982,00
353,54	3086,00
354,01	3174,50
354,48	3310,50
354,94	3465,00
355,41	3678,00
355,88	3975,50
356,35	4251,00
356,82	4694,00
357,29	5116,00
357,76	5794,50
358,23	6372,00
358,70	7056,00
359,17	7901,50
359,64	8662,00
360,11	9562,50
360,58	10560,50
361,05	11443,50
361,52	12372,00
361,99	13380,00
362,46	14415,50
362,93	15723,50
363,39	17005,50
363,86	18541,50
364,33	20384,50
364,80	22396,50
365,27	24849,00
365,74	27688,00
366,21	30623,00
366,68	33687,00
367,15	36741,50
367,62	40293,00
368,09	42075,00
368,55	43998,00
369,02	45154,50
369,49	45130,50
369,96	44542,00
370,43	43429,00
370,90	41744,00
371,37	40102,50
371,84	38524,00
372,31	37066,00
372,77	35896,00
373,24	34923,00
373,71	33897,50
374,18	33291,50
374,65	32725,00
375,12	32121,00
375,59	31749,00
376,05	31407,50
376,52	30574,00
376,99	29928,00
377,46	29020,00
377,93	28190,50
378,40	26812,00
378,86	25391,50
379,33	23615,50
379,80	21925,50
380,27	20319,00
380,74	18745,00
381,21	17127,50
381,67	15816,50
382,14	14551,00
382,61	13511,50
383,08	12611,50
383,55	11823,50
384,02	11220,00
384,48	10655,00
384,95	10222,50
385,42	9797,00
385,89	9342,00
386,36	9021,00
386,82	8873,00
387,29	8471,00
387,76	8237,50
388,23	8004,50
388,69	7675,50
389,16	7520,50
389,63	7132,00
390,10	6814,50
390,57	6499,00
391,03	6189,00
391,50	5892,50
391,97	5598,50
392,44	5380,00
392,90	5078,00
393,37	4864,00
393,84	4799,50
394,31	4540,50
394,77	4442,00
395,24	4226,00
395,71	4197,50
396,18	4203,50
396,64	3961,50
397,11	3919,50
397,58	3863,00
398,05	3755,00
398,51	3691,00
398,98	3634,00
399,45	3572,00
399,92	3578,00
400,38	3468,50
400,85	3419,50
401,32	3362,50
401,78	3333,00
402,25	3290,00
402,72	3237,50
403,18	3169,50
403,65	3197,50
404,12	3119,00
404,59	3112,00
405,05	3114,50
405,52	3020,50
405,99	2955,00
406,45	2974,00
406,92	2961,50
407,39	2982,00
407,85	2901,00
408,32	2901,00
408,79	2877,00
409,25	2823,00
409,72	2885,00
410,19	2806,50
410,65	2847,00
411,12	2792,00
411,59	2856,00
412,05	2797,50
412,52	2758,00
412,99	2779,00
413,45	2745,50
413,92	2768,50
414,39	2772,00
414,85	2809,00
415,32	2720,00
415,78	2766,00
416,25	2723,50
416,72	2717,00
417,18	2759,00
417,65	2705,00
418,12	2707,00
418,58	2706,00
419,05	2702,00
419,51	2708,50
419,98	2673,00
420,45	2680,00
420,91	2652,50
421,38	2672,00
421,84	2670,00
422,31	2697,50
422,78	2658,00
423,24	2671,00
423,71	2679,00
424,17	2686,50
424,64	2667,50
425,11	2690,00
425,57	2654,50
426,04	2677,50
426,50	2648,00
426,97	2694,50
427,43	2679,00
427,90	2681,00
428,37	2637,00
428,83	2678,50
429,30	2656,50
429,76	2638,50
430,23	2651,00
430,69	2763,50
431,16	2609,50
431,62	2634,50
432,09	2674,50
432,55	2680,00
433,02	2632,00
433,48	2618,50
433,95	2654,50
434,42	2647,00
434,88	2660,00
435,35	2612,50
435,81	2668,50
436,28	2638,00
436,74	2615,50
437,21	2653,50
437,67	2650,00
438,14	2636,50
438,60	2605,00
439,07	2636,50
439,53	2752,50
440,00	2638,00
440,46	2669,50
440,93	2673,00
441,39	2608,00
441,86	2621,50
442,32	2693,00
442,79	2614,00
443,25	2620,00
443,72	2628,50
444,18	2590,50
444,64	2701,50
445,11	2631,50
445,57	2611,00
446,04	2626,00
446,50	2633,50
446,97	2609,00
447,43	2628,50
447,90	2609,00
448,36	2604,00
448,83	2658,00
449,29	2643,50
449,75	2609,00
450,22	2603,50
450,68	2605,00
451,15	2611,50
451,61	2624,00
452,08	2658,00
452,54	2602,50
453,00	2656,00
453,47	2611,50
453,93	2620,00
454,40	2636,00
454,86	2644,00
455,32	2598,50
455,79	2626,00
456,25	2637,00
456,72	2613,50
457,18	2653,00
457,64	2617,00
458,11	2612,50
458,57	2596,50
459,04	2624,50
459,50	2621,50
459,96	2624,50
460,43	2604,50
460,89	2580,00
461,36	2665,50
461,82	2643,50
462,28	2597,00
462,75	2581,00
463,21	2643,50
463,67	2599,50
464,14	2620,00
464,60	2616,50
465,06	2583,00
465,53	2592,00
465,99	2657,00
466,45	2620,50
466,92	2634,50
467,38	2635,50
467,84	2621,00
468,31	2616,50
468,77	2627,50
469,23	2624,50
469,70	2592,50
470,16	2625,50
470,62	2619,50
471,09	2614,00
471,55	2629,50
472,01	2604,50
472,48	2613,00
472,94	2621,00
473,40	2662,00
473,87	2632,50
474,33	2596,50
474,79	2625,00
475,25	2594,00
475,72	2638,50
476,18	2629,00
476,64	2646,00
477,11	2610,50
477,57	2614,00
478,03	2669,00
478,49	2636,50
478,96	2654,00
479,42	2610,00
479,88	2685,50
480,35	2639,50
480,81	2621,00
481,27	2630,00
481,73	2639,50
482,20	2626,00
482,66	2609,00
483,12	2628,50
483,58	2601,50
484,05	2655,50
484,51	2678,00
484,97	2642,00
485,43	2624,00
485,89	2597,50
486,36	2629,50
486,82	2600,00
487,28	2650,50
487,74	2612,00
488,21	2609,50
488,67	2630,00
489,13	2655,50
489,59	2627,50
490,05	2686,50
490,52	2600,00
490,98	2661,50
491,44	2616,50
491,90	2650,00
492,36	2605,00
492,83	2679,50
493,29	2659,00
493,75	2648,00
494,21	2642,00
494,67	2651,50
495,14	2629,50
495,60	2637,50
496,06	2662,00
496,52	2640,50
496,98	2655,00
497,44	2721,00
497,91	2705,00
498,37	2641,50
498,83	2690,00
499,29	2662,50
499,75	2752,00
500,21	2681,50
500,67	2655,50
501,14	2682,00
501,60	2662,00
502,06	2708,50
502,52	2686,00
502,98	2663,50
503,44	2674,00
503,90	2696,00
504,37	2673,50
504,83	2686,50
505,29	2688,00
505,75	2670,00
506,21	2681,00
506,67	2735,50
507,13	2708,50
507,59	2729,50
508,05	2734,00
508,51	2686,50
508,98	2688,00
509,44	2667,50
509,90	2684,00
510,36	2723,50
510,82	2684,50
511,28	2747,50
511,74	2755,50
512,20	2689,50
512,66	2658,50
513,12	2687,00
513,58	2743,00
514,04	2676,00
514,51	2734,00
514,97	2783,50
515,43	2676,50
515,89	2717,00
516,35	2747,50
516,81	2759,00
517,27	2813,50
517,73	2734,00
518,19	2727,50
518,65	2870,50
519,11	2739,50
519,57	2706,00
520,03	2706,50
520,49	2731,00
520,95	2726,50
521,41	2747,00
521,87	2753,00
522,33	2741,50
522,79	2708,50
523,25	2806,50
523,71	2789,50
524,17	2725,50
524,63	2810,50
525,09	2751,50
525,55	2783,00
526,01	2789,50
526,47	2764,50
526,93	2755,00
527,39	2760,50
527,85	2749,00
528,31	2767,00
528,77	2775,00
529,23	2759,50
529,69	2730,50
530,15	2786,00
530,61	2789,50
531,07	2729,50
531,53	2790,00
531,99	2771,50
532,45	2764,50
532,91	2767,50
533,37	2788,50
533,83	2773,50
534,29	2741,00
534,75	2766,00
535,21	2735,50
535,67	2782,50
536,12	2774,50
536,58	2785,00
537,04	2755,50
537,50	2783,00
537,96	2757,00
538,42	2785,00
538,88	2813,00
539,34	2790,00
539,80	2965,50
540,26	2742,00
540,72	2839,00
541,18	2800,00
541,63	2749,00
542,09	2789,50
542,55	2797,00
543,01	2783,00
543,47	2881,00
543,93	2750,00
544,39	2855,00
544,85	2797,00
545,31	2795,50
545,76	2794,00
546,22	2829,50
546,68	2792,00
547,14	2798,50
547,60	2819,50
548,06	2801,50
548,52	2776,00
548,98	2817,50
549,43	2783,50
549,89	2862,50
550,35	2791,00
550,81	2758,00
551,27	2812,50
551,73	2778,50
552,19	2881,00
552,64	2790,00
553,10	2774,00
553,56	2803,50
554,02	2774,50
554,48	2754,50
554,93	2782,00
555,39	2805,00
555,85	2858,50
556,31	2791,00
556,77	2849,50
557,23	2759,00
557,68	2786,50
558,14	2872,00
558,60	2789,00
559,06	2815,00
559,52	2765,00
559,97	2763,00
560,43	2758,50
560,89	2802,50
561,35	2782,50
561,81	2783,00
562,26	2792,50
562,72	2773,50
563,18	2797,00
563,64	2835,00
564,09	2772,50
564,55	2789,00
565,01	2777,50
565,47	2803,00
565,92	2806,50
566,38	2824,00
566,84	2781,00
567,30	2756,50
567,75	2806,00
568,21	2812,00
568,67	2772,50
569,13	2787,00
569,58	2814,00
570,04	2779,50
570,50	2784,00
570,96	2810,00
571,41	2808,50
571,87	2791,00
572,33	2781,00
572,78	2804,00
573,24	2771,50
573,70	2752,00
574,16	2793,50
574,61	2819,50
575,07	2812,00
575,53	2759,00
575,98	2792,50
576,44	2724,50
576,90	2835,50
577,36	2785,50
577,81	2772,00
578,27	2757,00
578,73	2812,50
579,18	2792,50
579,64	2757,50
580,10	2810,50
580,55	2778,00
581,01	2776,00
581,47	2756,50
581,92	2768,50
582,38	2778,00
582,84	2748,50
583,29	2768,00
583,75	2772,00
584,21	2773,00
584,66	2798,50
585,12	2767,50
585,57	2872,50
586,03	2763,00
586,49	2768,00
586,94	2767,50
587,40	2776,50
587,86	2785,00
588,31	2730,00
588,77	2786,00
589,22	2755,00
589,68	2722,00
590,14	2788,00
590,59	2804,00
591,05	2752,50
591,51	2722,50
591,96	2803,50
592,42	2753,00
592,87	2796,00
593,33	2749,00
593,78	2782,00
594,24	2765,50
594,70	2738,00
595,15	2797,00
595,61	2732,00
596,06	2722,50
596,52	2794,50
596,98	2765,50
597,43	2791,00
597,89	2749,00
598,34	2698,00
598,80	2750,50
599,25	2786,50
599,71	2718,00
600,16	2777,00
600,62	2771,50
601,08	2752,00
601,53	2760,50
601,99	2704,50
602,44	2823,50
602,90	2743,50
603,35	2729,50
603,81	2703,50
604,26	2688,00
604,72	2742,00
605,17	2735,50
605,63	2755,00
606,08	2741,00
606,54	2695,00
606,99	2732,00
607,45	2708,00
607,90	2717,50
608,36	2747,00
608,81	2709,50
609,27	2802,00
609,72	2757,00
610,18	2720,00
610,63	2713,00
611,09	2721,50
611,54	2672,00
612,00	2777,00
612,45	2731,50
612,91	2728,50
613,36	2807,00
613,82	2684,00
614,27	2678,00
614,73	2697,50
615,18	2669,50
615,64	2705,00
616,09	2703,00
616,54	2701,00
617,00	2702,50
617,45	2703,00
617,91	2728,50
618,36	2683,00
618,82	2702,50
619,27	2714,50
619,72	2732,00
620,18	2672,00
620,63	2711,00
621,09	2737,00
621,54	2711,50
622,00	2737,00
622,45	2755,50
622,90	2742,50
623,36	2679,00
623,81	2692,00
624,27	2735,00
624,72	2665,50
625,17	2685,50
625,63	2716,50
626,08	2674,00
626,54	2685,00
626,99	2698,00
627,44	2674,50
627,90	2713,50
628,35	2719,50
628,81	2660,50
629,26	2677,50
629,71	2693,50
630,17	2665,00
630,62	2706,00
631,07	2680,00
631,53	2698,50
631,98	2692,50
632,43	2712,00
632,89	2652,00
633,34	2663,00
633,79	2649,50
634,25	2665,50
634,70	2642,00
635,15	2657,00
635,61	2668,50
636,06	2649,50
636,51	2686,00
636,97	2678,50
637,42	2654,00
637,87	2693,00
638,33	2689,50
638,78	2667,00
639,23	2656,00
639,69	2642,50
640,14	2639,00
640,59	2682,50
641,05	2693,00
641,50	2642,50
641,95	2648,00
642,40	2657,50
642,86	2632,50
643,31	2650,50
643,76	2675,50
644,22	2639,50
644,67	2639,50
645,12	2643,50
645,57	2624,00
646,03	2649,00
646,48	2662,00
646,93	2659,00
647,38	2674,50
647,84	2650,50
648,29	2660,00
648,74	2615,00
649,19	2684,50
649,65	2651,00
650,10	2777,50
650,55	2627,00
651,00	2607,50
651,46	2626,50
651,91	2645,50
652,36	2617,50
652,81	2649,00
653,27	2640,00
653,72	2621,00
654,17	2649,50
654,62	2636,50
655,07	2633,00
655,53	2616,00
655,98	2633,00
656,43	2629,50
656,88	2649,50
657,33	2649,00
657,79	2660,50
658,24	2609,50
658,69	2634,00
659,14	2602,00
659,59	2777,00
660,05	2604,00
660,50	2677,50
660,95	2618,00
661,40	2614,50
661,85	2619,50
662,30	2607,00
662,76	2578,00
663,21	2617,50
663,66	2630,00
664,11	2585,00
664,56	2632,00
665,01	2602,00
665,47	2618,00
665,92	2603,00
666,37	2619,50
666,82	2616,50
667,27	2698,50
667,72	2683,50
668,17	2595,00
668,62	2629,50
669,08	2595,00
669,53	2684,00
669,98	2567,00
670,43	2599,00
670,88	2660,00
671,33	2607,00
671,78	2653,00
672,23	2690,00
672,69	2610,00
673,14	2620,50
673,59	2646,50
674,04	2728,00
674,49	2601,00
674,94	2621,00
675,39	2573,50
675,84	2565,50
676,29	2603,00
676,74	2607,00
677,19	2597,00
677,64	2602,50
678,10	2700,50
678,55	2583,50
679,00	2591,00
679,45	2615,50
679,90	2581,50
680,35	2621,00
680,80	2591,00
681,25	2569,50
681,70	2558,00
682,15	2589,00
682,60	2576,50
683,05	2634,00
683,50	2605,50
683,95	2616,50
684,40	2628,50
684,85	2604,00
685,30	2613,50
685,75	2613,00
686,20	2591,00
686,65	2561,00
687,10	2598,00
687,55	2571,00
688,00	2595,50
688,45	2590,00
688,90	2680,50
689,35	2610,00
689,80	2553,00
690,25	2572,00
690,70	2590,50
691,15	2540,50
691,60	2594,00
692,05	2560,50
692,50	2586,50
692,95	2582,50
693,40	2598,00
693,85	2608,50
694,30	2584,00
694,75	2597,50
695,20	2744,50
695,65	2600,50
696,10	2586,00
696,55	2650,50
697,00	2580,50
697,45	2578,50
697,90	2605,50
698,35	2556,00
698,80	2607,50
699,24	2604,00
699,69	2567,00
700,14	2580,00
700,59	2607,00
701,04	2613,00
701,49	2725,50
701,94	2548,50
702,39	2646,00
702,84	2559,50
703,29	2573,50
703,74	2592,00
704,19	2569,00
704,63	2551,00
705,08	2612,50
705,53	2604,00
705,98	2603,50
706,43	2544,00
706,88	2608,50
707,33	2575,50
707,78	2556,00
708,22	2593,00
708,67	2601,00
709,12	2590,00
709,57	2573,50
710,02	2569,00
710,47	2573,50
710,92	2551,50
711,37	2597,00
711,81	2558,00
712,26	2589,50
712,71	2544,50
713,16	2631,00
713,61	2563,00
714,06	2579,50
714,50	2613,50
714,95	2594,00
715,40	2558,00
715,85	2581,00
716,30	2557,00
716,75	2561,50
717,19	2540,00
717,64	2533,50
718,09	2583,00
718,54	2635,50
718,99	2560,00
719,43	2552,50
719,88	2567,00
720,33	2565,50
720,78	2557,00
721,23	2578,50
721,67	2549,00
722,12	2586,00
722,57	2561,50
723,02	2551,00
723,47	2543,50
723,91	2562,50
724,36	2526,00
724,81	2590,50
725,26	2527,00
725,70	2566,50
726,15	2571,50
726,60	2568,50
727,05	2642,50
727,49	2537,00
727,94	2589,50
728,39	2594,00
728,84	2542,50
729,28	2605,50
729,73	2554,00
730,18	2589,50
730,63	2540,00
731,07	2555,00
731,52	2595,50
731,97	2571,50
732,41	2575,00
732,86	2540,00
733,31	2573,00
733,76	2577,00
734,20	2550,50
734,65	2596,00
735,10	2588,50
735,54	2566,00
735,99	2667,50
736,44	2548,50
736,89	2565,00
737,33	2600,00
737,78	2575,50
738,23	2557,00
738,67	2561,50
739,12	2567,00
739,57	2537,50
740,01	2603,00
740,46	2571,00
740,91	2541,50
741,35	2564,50
741,80	2580,50
742,25	2544,50
742,69	2559,50
743,14	2544,00
743,59	2549,00
744,03	2571,50
744,48	2610,00
744,92	2594,00
745,37	2588,00
745,82	2574,50
746,26	2619,50
746,71	2513,50
747,16	2540,00
747,60	2536,00
748,05	2575,00
748,49	2561,00
748,94	2549,00
749,39	2578,50
749,83	2687,00
750,28	2551,00
750,73	2554,50
751,17	2526,50
751,62	2542,50
752,06	2551,00
752,51	2550,00
752,95	2619,00
753,40	2539,00
753,85	2564,00
754,29	2518,00
754,74	2544,50
755,18	2532,50
755,63	2558,00
756,07	2558,00
756,52	2602,00
756,97	2540,50
757,41	2596,00
757,86	2568,50
758,30	2543,00
758,75	2542,50
759,19	2554,50
759,64	2505,00
760,08	2549,50
760,53	2568,50
760,98	2552,00
761,42	2569,00
761,87	2594,50
762,31	2542,00
762,76	2516,00
763,20	2549,00
763,65	2573,50
764,09	2553,00
764,54	2519,50
764,98	2533,50
765,43	2560,50
765,87	2530,50
766,32	2528,50
766,76	2540,50
767,21	2560,50
767,65	2560,00
768,10	2563,50
768,54	2573,00
768,99	2558,00
769,43	2635,00
769,88	2532,50
770,32	2559,00
770,77	2547,50
771,21	2527,00
771,65	2582,50
772,10	2548,00
772,54	2556,50
772,99	2514,00
773,43	2550,50
773,88	2555,50
774,32	2506,50
774,77	2557,00
775,21	2527,50
775,65	2541,50
776,10	2555,00
776,54	2525,50
776,99	2532,50
777,43	2537,50
777,88	2569,00
778,32	2574,00
778,76	2543,50
779,21	2553,00
779,65	2646,50
780,10	2581,00
780,54	2561,00
780,99	2592,50
781,43	2581,00
781,87	2531,00
782,32	2556,50
782,76	2523,50
783,20	2537,50
783,65	2568,50
784,09	2572,50
784,54	2546,50
784,98	2545,00
785,42	2525,50
785,87	2534,00
786,31	2568,50
786,75	2586,00
787,20	2591,00
787,64	2528,00
788,09	2534,00
788,53	2545,00
788,97	2533,50
789,42	2547,00
789,86	2529,00
790,30	2555,00
790,75	2530,50
791,19	2532,50
791,63	2584,00
792,08	2533,50
792,52	2564,00
792,96	2542,00
793,41	2699,50
793,85	2580,50
794,29	2539,00
794,74	2550,00
795,18	2537,50
795,62	2525,50
796,06	2559,50
796,51	2540,50
796,95	2549,50
797,39	2524,00
797,84	2521,00
798,28	2544,00
798,72	2591,00
799,16	2559,50
799,61	2511,50
800,05	2611,00
800,49	2563,50
800,94	2535,50
801,38	2576,00
801,82	2537,50
802,26	2532,50
802,71	2583,00
803,15	2612,00
803,59	2571,00
804,03	2568,00
804,48	2540,50
804,92	2537,50
805,36	2611,00
805,80	2618,50
806,25	2610,50
806,69	2575,00
807,13	2607,50
807,57	2552,00
808,01	2561,50
808,46	2535,00
808,90	2561,00
809,34	2554,50
809,78	2533,00
810,23	2515,50
810,67	2556,50
811,11	2602,50
811,55	2666,50
811,99	2534,00
812,44	2514,00
812,88	2577,50
813,32	2600,00
813,76	2563,50
814,20	2554,00
814,64	2585,50
815,09	2563,00
815,53	2558,50
815,97	2522,50
816,41	2543,00
816,85	2528,50
817,29	2573,50
817,74	2557,50
818,18	2575,00
818,62	2529,00
819,06	2566,50
819,50	2593,50
819,94	2550,50
820,39	2560,50
820,83	2531,50
821,27	2569,00
821,71	2529,50
822,15	2594,00
822,59	2526,50
823,03	2552,50
823,47	2566,00
823,92	2526,50
824,36	2565,00
824,80	2543,00
825,24	2551,50
825,68	2567,50
826,12	2532,50
826,56	2531,00
827,00	2496,00
827,44	2536,50
827,88	2568,00
828,33	2581,00
828,77	2520,00
829,21	2582,00
829,65	2550,50
830,09	2522,00
830,53	2591,50
830,97	2538,50
831,41	2623,50
831,85	2586,50
832,29	2584,50
832,73	2521,50
833,17	2546,00
833,61	2536,50
834,05	2597,50
834,49	2579,00
834,93	2547,50
835,37	2546,00
835,82	2574,50
836,26	2538,00
836,70	2560,00
837,14	2535,50
837,58	2583,50
838,02	2517,50
838,46	2538,00
838,90	2552,50
839,34	2545,00
839,78	2596,00
840,22	2630,00
840,66	2554,50
841,10	2594,00
841,54	2508,50
841,98	2515,00
842,42	2521,50
842,86	2540,00
843,30	2564,00
843,74	2559,00
844,18	2574,50
844,62	2556,50
845,06	2533,00
845,50	2569,50
845,94	2542,00
846,37	2568,50
846,81	2537,50
847,25	2527,00
847,69	2545,00
848,13	2526,00
848,57	2542,50
849,01	2541,50
849,45	2565,50
849,89	2586,50
850,33	2568,00
850,77	2540,00
851,21	2576,00
851,65	2522,50
852,09	2547,00
852,53	2589,50
852,97	2534,50
853,40	2530,00
853,84	2575,50
854,28	2516,00
854,72	2567,50
855,16	2519,50
855,60	2532,00
856,04	2575,50
856,48	2593,50
856,92	2560,50
857,36	2562,00
857,79	2571,00
858,23	2514,50
858,67	2597,00
859,11	2510,50
859,55	2515,00
859,99	2541,50
860,43	2549,50
860,87	2574,00
861,30	2573,00
861,74	2537,50
862,18	2545,50
862,62	2568,50
863,06	2520,50
863,50	2540,00
863,94	2578,50
864,37	2537,00
864,81	2548,00
865,25	2550,50
865,69	2503,50
866,13	2540,00
866,57	2504,50
867,00	2564,00
867,44	2520,00
867,88	2550,50
868,32	2539,50
868,76	2542,00
869,19	2559,00
869,63	2542,00
870,07	2594,50
870,51	2634,00
870,95	2525,50
871,38	2557,50
871,82	2557,00
872,26	2531,00
872,70	2543,50
873,14	2569,00
873,57	2561,00
874,01	2588,00
874,45	2576,00
874,89	2555,50
875,32	2512,00
875,76	2579,00
876,20	2513,50
876,64	2572,50
877,07	2546,00
877,51	2547,50
877,95	2547,00
878,39	2550,50
878,82	2557,50
879,26	2552,00
879,70	2612,00
880,14	2526,00
880,57	2524,00
881,01	2548,50
881,45	2544,00
881,89	2565,50
882,32	2539,50
882,76	2545,00
883,20	2542,00
883,63	2548,00
884,07	2511,50
884,51	2563,00
884,94	2560,00
885,38	2574,50
885,82	2581,50
886,26	2524,50
886,69	2534,00
887,13	2608,00
887,57	2530,00
888,00	2515,50
888,44	2547,50
888,88	2523,00
889,31	2665,00
889,75	2529,00
890,19	2573,00
890,62	2531,50
891,06	2580,00
891,50	2575,00
891,93	2502,50
892,37	2541,50
892,81	2535,50
893,24	2511,00
893,68	2536,00
894,11	2557,00
894,55	2541,00
894,99	2567,00
895,42	2549,00
895,86	2529,50
896,30	2551,00
896,73	2568,50
897,17	2533,50
897,60	2534,50
898,04	2522,50
898,48	2554,00
898,91	2573,00
899,35	2522,50
899,78	2532,00
900,22	2528,00
900,66	2586,00
901,09	2566,50
901,53	2523,50
901,96	2613,00
902,40	2631,00
902,84	2527,00
903,27	2534,00
903,71	2615,00
904,14	2526,50
904,58	2564,50
905,01	2544,50
905,45	2536,50
905,88	2511,50
906,32	2584,50
906,76	2553,00
907,19	2572,00
907,63	2557,00
908,06	2533,50
908,50	2567,50
908,93	2588,00
909,37	2542,00
909,80	2524,50
910,24	2556,00
910,67	2541,50
911,11	2543,00
911,54	2533,00
911,98	2541,50
912,41	2560,00
912,85	2538,00
913,28	2558,00
913,72	2558,50
914,15	2545,00
914,59	2509,00
915,02	2518,00
915,46	2533,50
915,89	2522,50
916,33	2579,00
916,76	2513,50
917,20	2575,50
917,63	2531,50
918,07	2569,00
918,50	2517,00
918,94	2556,50
919,37	2534,00
919,81	2563,50
920,24	2572,00
920,67	2545,00
921,11	2588,00
921,54	2550,50
921,98	2527,50
922,41	2512,00
922,85	2510,00
923,28	2560,00
923,72	2594,50
924,15	2562,00
924,58	2520,00
925,02	2572,00
925,45	2512,00
925,89	2569,50
926,32	2623,00
926,75	2530,50
927,19	2561,00
927,62	2521,50
928,06	2604,50
928,49	2542,50
928,92	2498,50
929,36	2553,00
929,79	2520,00
930,23	2558,00
930,66	2580,00
931,09	2516,00
931,53	2550,00
931,96	2514,00
932,39	2595,50
932,83	2578,50
933,26	2640,50
933,70	2542,50
934,13	2581,00
934,56	2575,00
935,00	2569,50
935,43	2555,50
935,86	2518,00
936,30	2534,00
936,73	2525,00
937,16	2555,50
937,60	2523,50
938,03	2560,50
938,46	2519,00
938,90	2538,00
939,33	2562,50
939,76	2520,50
940,19	2532,00
940,63	2572,50
941,06	2622,00
941,49	2529,00
941,93	2568,00
942,36	2523,50
942,79	2528,00
943,23	2571,50
943,66	2507,00
944,09	2517,50
944,52	2574,50
944,96	2554,50
945,39	2557,00
945,82	2550,00
946,26	2525,00
946,69	2557,50
947,12	2584,50
947,55	2558,50
947,99	2560,50
948,42	2550,00
948,85	2511,50
949,28	2516,00
949,72	2518,00
950,15	2635,00
950,58	2581,50
951,01	2532,50
951,45	2528,00
951,88	2554,00
952,31	2506,50
952,74	2576,50
953,17	2527,00
953,61	2612,50
954,04	2514,00
954,47	2522,00
954,90	2531,50
955,33	2550,00
955,77	2528,00
956,20	2564,50
956,63	2512,50
957,06	2559,50
957,49	2634,50
957,93	2518,00
958,36	2557,50
958,79	2533,50
959,22	2524,50
959,65	2525,50
960,08	2517,00
960,52	2494,50
960,95	2528,50
961,38	2556,50
961,81	2555,50
962,24	2572,00
962,67	2577,00
963,11	2508,00
963,54	2549,50
963,97	2541,50
964,40	2538,00
964,83	2526,00
965,26	2503,50
965,69	2561,00
966,13	2539,00
966,56	2541,00
966,99	2559,00
967,42	2516,50
967,85	2516,00
968,28	2588,00
968,71	2700,50
969,14	2577,00
969,57	2544,50
970,01	2554,00
970,44	2510,50
970,87	2523,50
971,30	2570,00
971,73	2526,00
972,16	2540,50
972,59	2511,00
973,02	2523,50
973,45	2538,50
973,88	2557,50
974,31	2532,00
974,74	2569,00
975,17	2538,50
975,61	2530,50
976,04	2518,00
976,47	2531,00
976,90	2553,50
977,33	2529,00
977,76	2567,00
978,19	2541,00
978,62	2530,50
979,05	2547,00
979,48	2513,00
979,91	2549,00
980,34	2559,00
980,77	2524,50
981,20	2552,00
981,63	2575,00
982,06	2536,50
982,49	2543,00
982,92	2539,00
983,35	2532,00
983,78	2523,00
984,21	2575,00
984,64	2551,00
985,07	2504,00
985,50	2507,00
985,93	2535,00
986,36	2561,50
986,79	2543,50
987,22	2513,50
987,65	2564,00
988,08	2535,50
988,51	2536,50
988,94	2529,50
989,37	2535,50
989,80	2539,50
990,23	2525,00
990,66	2560,00
991,09	2544,50
991,51	2561,50
991,94	2595,50
992,37	2539,50
992,80	2519,50
993,23	2524,00
993,66	2532,50
994,09	2524,50
994,52	2564,50
994,95	2559,00
995,38	2554,00
995,81	2541,50
996,24	2506,50
996,67	2525,00
997,09	2483,50
997,52	2578,00
997,95	2562,00
998,38	2538,50
998,81	2557,50
999,24	2509,00
999,67	2594,50
1000,10	2534,00
1000,53	2537,50
1000,95	2587,00
1001,38	2537,00
1001,81	2542,00
1002,24	2575,00
1002,67	2553,00
1003,10	2550,50
1003,53	2536,00
1003,95	2574,00
1004,38	2516,50
1004,81	2561,00
1005,24	2553,50
1005,67	2601,50
1006,10	2541,00
1006,52	2496,00
1006,95	2565,00
1007,38	2550,00
1007,81	2508,00
1008,24	2509,50
1008,67	2524,50
1009,09	2535,00
1009,52	2668,00
1009,95	2560,00
1010,38	2568,50
1010,81	2550,00
1011,23	2559,00
1011,66	2594,50
1012,09	2537,00
1012,52	2561,50
1012,95	2541,00
1013,37	2548,00
1013,80	2548,00
1014,23	2520,50
1014,66	2571,00
1015,08	2491,00
1015,51	2572,50
1015,94	2526,00
1016,37	2532,50
1016,80	2523,50
1017,22	2554,50
1017,65	2536,50
1018,08	3284,00
1018,51	2525,50
1018,93	2501,50
1019,36	2658,00
1019,79	2566,50
1020,21	2561,50
1020,64	2531,00
1021,07	2528,00
1021,50	2558,00
1021,92	2551,00
1022,35	2558,00
1022,78	2540,00
1023,21	2661,00
1023,63	2576,00
1024,06	2575,00
1024,49	2560,00
1024,91	2550,00
1025,34	2551,00
1025,77	2565,50
1026,19	2524,50
1026,62	2518,50
1027,05	2623,00
1027,47	2560,00
1027,90	2557,50
1028,33	2538,50
1028,75	2548,50
1029,18	2526,50
1029,61	2629,00
1030,03	2538,50
1030,46	2537,00
1030,89	2565,00
1031,31	2597,00
1031,74	2511,50
1032,17	2543,00
1032,59	2575,50
1033,02	2545,00
1033,45	2562,00
1033,87	2524,50
1034,30	2527,00
1034,73	2554,00
1035,15	2569,00
1035,58	2526,50
1036,00	2597,00
1036,43	2513,50
1036,86	2533,00
1037,28	2544,50
1037,71	2501,50
1038,13	2560,50
1038,56	2568,50
1038,99	2571,50
1039,41	2567,50
1039,84	2583,00
1040,26	2534,50
1040,69	2532,00
1041,11	2557,00
1041,54	2538,00
1041,97	2592,00
1042,39	2577,50
1042,82	2559,50
1043,24	2574,00
1043,67	2529,00
1044,09	2575,50
1044,52	2513,50
1044,95	2538,50
1045,37	2528,50
1045,80	2516,50
1046,22	2551,50
1046,65	2558,00
1047,07	2526,00
1047,50	2541,50
1047,92	2573,00
1048,35	2520,00
1048,77	2587,00
1049,20	2561,50
1049,62	2577,00
1050,05	2538,50
1050,47	2540,50
1050,90	2559,50
1051,32	2567,50
1051,75	2580,50
1052,17	2580,00
1052,60	2547,50
1053,02	2559,00
1053,45	2491,50
1053,87	2554,50
1054,30	2497,00
1054,72	2529,00
1055,15	2516,50
1055,57	2553,50
1056,00	2545,00
1056,42	2606,50
1056,85	2573,50
1057,27	2580,00
1057,70	2541,50
1058,12	2695,00
1058,54	2510,50
1058,97	2557,50
1059,39	2563,50
1059,82	2550,50
1060,24	2527,00
1060,67	2538,00
1061,09	2562,00
1061,51	2550,50
1061,94	2534,00
1062,36	2572,00
1062,79	2591,00
1063,21	2551,00
1063,64	2558,50
1064,06	2524,50
1064,48	2575,50
1064,91	2577,00
1065,33	2539,50
1065,76	2514,50
1066,18	2498,50
1066,60	2578,50
1067,03	2549,50
1067,45	2548,50
1067,87	2541,00
1068,30	2533,50
1068,72	2599,50
1069,15	2551,50
1069,57	2547,00
1069,99	2510,00
1070,42	2567,50
1070,84	2592,50
1071,26	2572,50
1071,69	2542,50
1072,11	2582,50
1072,53	2524,00
1072,96	2518,50
1073,38	2514,00
1073,80	2553,50
1074,23	2529,50
1074,65	2521,00
1075,07	2523,50
1075,50	2531,50
1075,92	2535,00
1076,34	2516,50
1076,77	2512,00
1077,19	2538,00
1077,61	2578,00
1078,04	2528,00
1078,46	2557,50
1078,88	2587,00
1079,30	2502,00
1079,73	2529,00
1080,15	2536,00
1080,57	2535,50
1081,00	2556,00
1081,42	2542,50
1081,84	2528,50
1082,26	2555,50
1082,69	2543,50
1083,11	2556,00
1083,53	2548,50
1083,95	2542,00
1084,38	2570,50
1084,80	2550,00
1085,22	2545,00
1085,64	2579,50
1086,07	2521,00
1086,49	2535,50
1086,91	2544,00
1087,33	2498,50
1087,76	2561,00
1088,18	3642,50
1088,60	2543,00
1089,02	2528,00
1089,45	2535,50
1089,87	2534,50
1090,29	2573,50
1090,71	2525,50
1091,13	2499,00
1091,56	2548,00
1091,98	2542,50
1092,40	2530,50
1092,82	2543,50
1093,24	2529,00
1093,66	2542,50
1094,09	2536,00
1094,51	2553,00
1094,93	2527,00
1095,35	2542,00
1095,77	2522,50
1096,19	2547,50
1096,62	2542,50
1097,04	2515,50
1097,46	2549,50
1097,88	2517,00
1098,30	2567,00
1098,72	2554,50
1099,15	2564,00
1099,57	2515,50
1099,99	2538,00
1100,41	2525,50
1100,83	2529,50
1101,25	2535,00
1101,67	2529,50
1102,09	2494,00
1102,52	2535,00
1102,94	2527,50
1103,36	2542,50
1103,78	2551,50
1104,20	2521,50
1104,62	2592,00
1105,04	2502,00
1105,46	2544,50
1105,88	2532,50
1106,30	2509,50
1106,73	2537,50
1107,15	2496,00
1107,57	2498,50
1107,99	2571,00
1108,41	2498,00
1108,83	2540,00
1109,25	2535,00
1109,67	2545,00
1110,09	2497,50
1110,51	2518,00
1110,93	2486,00
1111,35	2509,50
1111,77	2502,00
1112,19	2501,50
1112,61	2493,50
1113,03	2530,00
1113,45	2503,50
1113,87	2500,00
1114,29	2536,50
1114,71	2542,00
1115,13	2511,50
1115,55	2513,00
1115,98	2502,00
1116,40	2525,50
1116,82	2515,00
1117,24	2516,50
1117,66	2510,00
1118,08	2168,00
1118,50	2176,00
1118,91	2175,00
1119,33	2179,50
>>>>>End Processed Spectral Data<<<<<
