SpectraSuite Data File
++++++++++++++++++++++++++++++++++++
Date: Wed Nov 27 17:23:29 EET 2013
User: OO Maya
Dark Spectrum Present: No
Reference Spectrum Present: No
Number of Sampled Component Spectra: 1
Spectrometers: MAYP11278
Integration Time (usec): 120000 (MAYP11278)
Spectra Averaged: 5 (MAYP11278)
Boxcar Smoothing: 0 (MAYP11278)
Correct for Electrical Dark: No (MAYP11278)
Strobe/Lamp Enabled: No (MAYP11278)
Correct for Detector Non-linearity: No (MAYP11278)
Correct for Stray Light: No (MAYP11278)
Number of Pixels in Processed Spectrum: 2068
>>>>>Begin Processed Spectral Data<<<<<
188,05	2294,40
188,53	2215,60
189,01	2181,40
189,49	2181,80
189,96	2334,60
190,44	2332,40
190,92	2331,20
191,40	2339,60
191,88	2349,80
192,36	2336,00
192,83	2336,40
193,31	2325,60
193,79	2335,00
194,27	2336,00
194,75	2339,40
195,23	2339,80
195,70	2350,40
196,18	2333,60
196,66	2333,80
197,14	2361,20
197,62	2342,00
198,09	2329,00
198,57	2328,60
199,05	2336,60
199,53	2344,40
200,01	2346,60
200,48	2329,60
200,96	2332,20
201,44	2352,20
201,92	2348,20
202,39	2348,60
202,87	2329,40
203,35	2344,80
203,83	2330,60
204,31	2352,00
204,78	2352,40
205,26	2337,80
205,74	2335,80
206,22	2354,80
206,69	2335,00
207,17	2348,20
207,65	2364,00
208,13	2340,80
208,60	2350,20
209,08	2336,00
209,56	2350,60
210,04	2337,80
210,51	2339,60
210,99	2335,60
211,47	2347,80
211,94	2336,60
212,42	2339,60
212,90	2359,40
213,38	2352,40
213,85	2322,20
214,33	2364,40
214,81	2349,00
215,29	2354,60
215,76	2344,80
216,24	2345,80
216,72	2345,40
217,19	2348,00
217,67	2336,20
218,15	2337,00
218,62	2359,60
219,10	2326,80
219,58	2330,20
220,05	2337,00
220,53	2335,40
221,01	2388,00
221,49	2338,20
221,96	2356,20
222,44	2341,00
222,92	2347,20
223,39	2342,60
223,87	2352,80
224,35	2342,60
224,82	2340,00
225,30	2332,20
225,78	2340,60
226,25	2344,40
226,73	2344,60
227,21	2360,20
227,68	2345,00
228,16	2347,80
228,63	2349,40
229,11	2348,20
229,59	2342,60
230,06	2343,20
230,54	2340,80
231,02	2345,80
231,49	2364,00
231,97	2343,00
232,45	2338,20
232,92	2337,00
233,40	2345,00
233,87	2347,40
234,35	2381,40
234,83	2343,20
235,30	2332,80
235,78	2338,20
236,25	2329,20
236,73	2361,20
237,21	2359,40
237,68	2340,20
238,16	2347,00
238,63	2345,40
239,11	2348,20
239,59	2339,60
240,06	2330,00
240,54	2347,60
241,01	2354,20
241,49	2347,60
241,96	2339,80
242,44	2353,60
242,92	2359,20
243,39	2331,00
243,87	2343,00
244,34	2355,20
244,82	2359,20
245,29	2339,20
245,77	2352,40
246,24	2361,00
246,72	2340,60
247,20	2340,80
247,67	2337,60
248,15	2345,80
248,62	2350,60
249,10	2331,60
249,57	2344,00
250,05	2357,60
250,52	2352,00
251,00	2360,00
251,47	2348,80
251,95	2360,60
252,42	2358,40
252,90	2344,80
253,37	2356,80
253,85	2352,00
254,32	2342,00
254,80	2345,00
255,27	2346,00
255,75	2354,40
256,22	2337,80
256,70	2345,00
257,17	2348,40
257,65	2355,60
258,12	2376,60
258,60	2350,00
259,07	2340,20
259,55	2350,40
260,02	2355,20
260,50	2357,20
260,97	2348,80
261,45	2346,60
261,92	2357,40
262,40	2337,80
262,87	2354,20
263,35	2348,20
263,82	2340,60
264,30	2356,20
264,77	2358,00
265,25	2338,20
265,72	2346,00
266,19	2357,20
266,67	2358,80
267,14	2345,60
267,62	2337,40
268,09	2353,60
268,57	2348,60
269,04	2326,80
269,51	2339,80
269,99	2338,40
270,46	2355,20
270,94	2355,00
271,41	2343,80
271,89	2346,20
272,36	2337,60
272,83	2330,40
273,31	2330,60
273,78	2351,80
274,26	2385,00
274,73	2353,40
275,20	2353,20
275,68	2337,60
276,15	2345,20
276,63	2352,80
277,10	2352,40
277,57	2333,80
278,05	2343,80
278,52	2334,60
279,00	2389,80
279,47	2343,00
279,94	2341,40
280,42	2394,20
280,89	2351,40
281,36	2374,40
281,84	2339,80
282,31	2359,20
282,78	2343,80
283,26	2349,60
283,73	2346,60
284,21	2339,40
284,68	2332,00
285,15	2354,60
285,63	2342,20
286,10	2352,00
286,57	2351,40
287,05	2332,40
287,52	2345,40
287,99	2370,80
288,47	2344,60
288,94	2356,40
289,41	2325,20
289,89	2362,20
290,36	2335,00
290,83	2340,20
291,30	2344,20
291,78	2353,00
292,25	2363,80
292,72	2339,00
293,20	2359,00
293,67	2340,20
294,14	2349,80
294,62	2351,40
295,09	2336,20
295,56	2349,60
296,03	2349,20
296,51	2365,60
296,98	2358,20
297,45	2348,60
297,93	2349,60
298,40	2351,60
298,87	2341,80
299,34	2366,00
299,82	2335,60
300,29	2353,60
300,76	2344,00
301,23	2355,80
301,71	2353,40
302,18	2359,80
302,65	2333,60
303,12	2355,00
303,60	2354,80
304,07	2334,80
304,54	2340,60
305,01	2341,00
305,49	2351,20
305,96	2352,20
306,43	2350,40
306,90	2350,60
307,38	2347,40
307,85	2346,20
308,32	2344,20
308,79	2347,80
309,27	2359,40
309,74	2353,60
310,21	2348,80
310,68	2343,00
311,15	2357,00
311,63	2344,80
312,10	2357,20
312,57	2344,40
313,04	2367,40
313,51	2337,80
313,99	2348,40
314,46	2348,40
314,93	2336,80
315,40	2343,40
315,87	2352,60
316,34	2356,40
316,82	2347,80
317,29	2350,40
317,76	2348,00
318,23	2371,40
318,70	2344,40
319,17	2346,80
319,65	2331,20
320,12	2354,20
320,59	2361,60
321,06	2353,60
321,53	2347,00
322,00	2326,00
322,48	2339,80
322,95	2369,80
323,42	2340,80
323,89	2374,40
324,36	2340,20
324,83	2352,20
325,30	2351,80
325,78	2344,40
326,25	2346,00
326,72	2340,40
327,19	2353,20
327,66	2352,40
328,13	2353,40
328,60	2347,60
329,07	2341,20
329,54	2342,80
330,02	2347,00
330,49	2336,20
330,96	2355,80
331,43	2352,80
331,90	2369,60
332,37	2339,40
332,84	2364,20
333,31	2360,20
333,78	2351,40
334,25	2362,60
334,72	2352,20
335,20	2351,00
335,67	2392,40
336,14	2342,40
336,61	2341,80
337,08	2344,00
337,55	2353,00
338,02	2341,80
338,49	2346,20
338,96	2364,00
339,43	2355,40
339,90	2343,20
340,37	2350,20
340,84	2334,00
341,31	2352,20
341,78	2366,20
342,25	2340,00
342,72	2352,00
343,19	2356,40
343,67	2347,40
344,14	2342,20
344,61	2351,20
345,08	2346,20
345,55	2345,60
346,02	2355,80
346,49	2345,60
346,96	2343,60
347,43	2365,80
347,90	2343,40
348,37	2353,20
348,84	2346,80
349,31	2328,60
349,78	2343,60
350,25	2353,40
350,72	2344,80
351,19	2340,60
351,66	2354,20
352,13	2366,00
352,60	2346,80
353,07	2344,00
353,54	2347,20
354,01	2354,00
354,48	2349,80
354,94	2346,60
355,41	2347,00
355,88	2358,20
356,35	2337,60
356,82	2363,60
357,29	2336,00
357,76	2372,60
358,23	2351,20
358,70	2332,60
359,17	2337,60
359,64	2339,00
360,11	2340,60
360,58	2351,00
361,05	2366,40
361,52	2345,60
361,99	2345,60
362,46	2342,60
362,93	2342,60
363,39	2344,40
363,86	2366,60
364,33	2350,80
364,80	2340,80
365,27	2355,00
365,74	2338,00
366,21	2339,80
366,68	2412,00
367,15	2346,20
367,62	2509,00
368,09	2327,40
368,55	2335,60
369,02	2349,80
369,49	2341,80
369,96	2355,20
370,43	2350,20
370,90	2344,20
371,37	2345,80
371,84	2350,80
372,31	2337,40
372,77	2333,40
373,24	2352,00
373,71	2342,20
374,18	2337,60
374,65	2336,60
375,12	2355,60
375,59	2332,80
376,05	2359,00
376,52	2344,20
376,99	2335,60
377,46	2338,60
377,93	2341,80
378,40	2349,40
378,86	2345,00
379,33	2353,00
379,80	2346,40
380,27	2349,40
380,74	2357,80
381,21	2340,00
381,67	2363,20
382,14	2355,40
382,61	2329,20
383,08	2349,80
383,55	2341,20
384,02	2350,40
384,48	2350,80
384,95	2408,40
385,42	2348,40
385,89	2341,80
386,36	2337,00
386,82	2364,60
387,29	2341,00
387,76	2334,20
388,23	2352,20
388,69	2350,60
389,16	2352,40
389,63	2339,80
390,10	2353,00
390,57	2352,40
391,03	2349,00
391,50	2352,40
391,97	2348,60
392,44	2348,20
392,90	2346,00
393,37	2341,00
393,84	2371,40
394,31	2343,40
394,77	2355,60
395,24	2336,80
395,71	2351,40
396,18	2401,60
396,64	2331,80
397,11	2355,60
397,58	2345,20
398,05	2339,60
398,51	2352,20
398,98	2344,80
399,45	2340,40
399,92	2354,60
400,38	2335,20
400,85	2346,20
401,32	2338,60
401,78	2353,80
402,25	2348,00
402,72	2348,60
403,18	2339,00
403,65	2366,80
404,12	2347,60
404,59	2360,40
405,05	2363,40
405,52	2355,60
405,99	2339,20
406,45	2358,80
406,92	2354,80
407,39	2371,60
407,85	2341,40
408,32	2347,60
408,79	2351,20
409,25	2330,40
409,72	2358,00
410,19	2337,40
410,65	2363,00
411,12	2342,60
411,59	2359,60
412,05	2346,60
412,52	2334,40
412,99	2354,60
413,45	2342,00
413,92	2352,00
414,39	2354,60
414,85	2367,60
415,32	2341,40
415,78	2365,00
416,25	2349,40
416,72	2346,60
417,18	2372,00
417,65	2350,40
418,12	2343,20
418,58	2352,00
419,05	2347,80
419,51	2358,00
419,98	2338,40
420,45	2357,00
420,91	2329,00
421,38	2346,40
421,84	2344,60
422,31	2347,80
422,78	2337,60
423,24	2343,00
423,71	2350,60
424,17	2353,40
424,64	2343,40
425,11	2351,60
425,57	2344,40
426,04	2359,00
426,50	2348,20
426,97	2352,60
427,43	2357,60
427,90	2358,20
428,37	2337,40
428,83	2352,00
429,30	2351,40
429,76	2348,80
430,23	2354,60
430,69	2379,20
431,16	2331,60
431,62	2336,40
432,09	2361,60
432,55	2356,20
433,02	2347,40
433,48	2344,80
433,95	2345,60
434,42	2342,40
434,88	2355,80
435,35	2339,20
435,81	2350,80
436,28	2346,80
436,74	2334,40
437,21	2347,60
437,67	2344,40
438,14	2354,20
438,60	2343,40
439,07	2341,40
439,53	2396,40
440,00	2353,00
440,46	2364,20
440,93	2360,00
441,39	2339,40
441,86	2341,00
442,32	2373,60
442,79	2335,60
443,25	2344,40
443,72	2345,20
444,18	2330,00
444,64	2366,80
445,11	2350,20
445,57	2347,00
446,04	2348,00
446,50	2352,80
446,97	2342,60
447,43	2342,20
447,90	2336,80
448,36	2340,60
448,83	2354,40
449,29	2349,00
449,75	2343,20
450,22	2339,40
450,68	2334,40
451,15	2347,40
451,61	2344,00
452,08	2349,20
452,54	2333,40
453,00	2353,40
453,47	2348,40
453,93	2344,40
454,40	2349,40
454,86	2347,00
455,32	2337,40
455,79	2340,20
456,25	2354,00
456,72	2338,40
457,18	2362,40
457,64	2348,00
458,11	2348,00
458,57	2332,80
459,04	2345,40
459,50	2347,00
459,96	2344,60
460,43	2336,60
460,89	2334,00
461,36	2355,20
461,82	2349,00
462,28	2339,80
462,75	2334,40
463,21	2363,80
463,67	2346,60
464,14	2351,20
464,60	2348,40
465,06	2341,20
465,53	2344,40
465,99	2355,40
466,45	2343,20
466,92	2347,80
467,38	2349,80
467,84	2341,60
468,31	2347,20
468,77	2349,20
469,23	2346,60
469,70	2341,00
470,16	2347,60
470,62	2348,00
471,09	2341,60
471,55	2336,20
472,01	2336,20
472,48	2336,20
472,94	2347,80
473,40	2357,40
473,87	2346,80
474,33	2341,00
474,79	2343,80
475,25	2330,00
475,72	2346,80
476,18	2343,00
476,64	2351,80
477,11	2344,20
477,57	2346,60
478,03	2356,00
478,49	2347,60
478,96	2357,80
479,42	2336,80
479,88	2361,20
480,35	2349,60
480,81	2344,40
481,27	2348,00
481,73	2347,40
482,20	2343,40
482,66	2333,40
483,12	2351,20
483,58	2335,40
484,05	2339,80
484,51	2361,20
484,97	2348,40
485,43	2345,40
485,89	2337,00
486,36	2345,80
486,82	2326,20
487,28	2345,80
487,74	2332,60
488,21	2334,40
488,67	2344,20
489,13	2346,40
489,59	2344,40
490,05	2354,80
490,52	2335,40
490,98	2339,40
491,44	2334,40
491,90	2342,80
492,36	2330,40
492,83	2357,80
493,29	2346,60
493,75	2348,00
494,21	2336,60
494,67	2334,40
495,14	2341,20
495,60	2336,00
496,06	2341,40
496,52	2336,80
496,98	2338,40
497,44	2372,80
497,91	2358,20
498,37	2341,20
498,83	2349,40
499,29	2339,20
499,75	2370,40
500,21	2340,80
500,67	2346,20
501,14	2355,40
501,60	2340,40
502,06	2358,00
502,52	2340,60
502,98	2341,20
503,44	2349,60
503,90	2351,40
504,37	2342,80
504,83	2349,40
505,29	2347,80
505,75	2339,20
506,21	2344,40
506,67	2352,40
507,13	2344,60
507,59	2348,40
508,05	2349,40
508,51	2340,60
508,98	2339,60
509,44	2330,80
509,90	2343,80
510,36	2342,40
510,82	2344,00
511,28	2358,40
511,74	2364,00
512,20	2341,80
512,66	2334,00
513,12	2338,60
513,58	2352,00
514,04	2330,40
514,51	2356,40
514,97	2365,00
515,43	2334,00
515,89	2355,60
516,35	2354,20
516,81	2346,20
517,27	2371,00
517,73	2353,80
518,19	2346,20
518,65	2383,00
519,11	2355,80
519,57	2339,40
520,03	2337,20
520,49	2335,00
520,95	2341,40
521,41	2349,00
521,87	2357,20
522,33	2349,00
522,79	2335,60
523,25	2369,20
523,71	2355,40
524,17	2338,60
524,63	2359,80
525,09	2347,80
525,55	2354,20
526,01	2356,80
526,47	2348,00
526,93	2349,60
527,39	2349,40
527,85	2348,00
528,31	2354,80
528,77	2348,80
529,23	2345,80
529,69	2334,60
530,15	2353,60
530,61	2352,60
531,07	2333,40
531,53	2358,20
531,99	2347,00
532,45	2349,60
532,91	2337,00
533,37	2357,80
533,83	2345,40
534,29	2332,60
534,75	2342,00
535,21	2338,40
535,67	2351,20
536,12	2334,20
536,58	2355,60
537,04	2336,80
537,50	2358,20
537,96	2339,20
538,42	2348,60
538,88	2364,40
539,34	2358,80
539,80	2405,00
540,26	2327,80
540,72	2360,60
541,18	2347,40
541,63	2331,20
542,09	2349,80
542,55	2350,40
543,01	2336,20
543,47	2370,00
543,93	2332,60
544,39	2376,00
544,85	2352,20
545,31	2345,40
545,76	2336,20
546,22	2361,60
546,68	2342,20
547,14	2349,80
547,60	2356,40
548,06	2346,00
548,52	2344,20
548,98	2342,00
549,43	2348,80
549,89	2371,00
550,35	2341,00
550,81	2332,00
551,27	2351,20
551,73	2347,00
552,19	2367,20
552,64	2350,00
553,10	2339,20
553,56	2352,60
554,02	2338,20
554,48	2337,60
554,93	2351,40
555,39	2348,40
555,85	2369,80
556,31	2352,20
556,77	2355,60
557,23	2333,80
557,68	2342,40
558,14	2373,00
558,60	2340,80
559,06	2339,40
559,52	2333,60
559,97	2345,00
560,43	2340,40
560,89	2344,80
561,35	2340,40
561,81	2343,20
562,26	2342,80
562,72	2340,60
563,18	2342,80
563,64	2355,80
564,09	2334,80
564,55	2345,80
565,01	2340,40
565,47	2339,00
565,92	2340,20
566,38	2360,80
566,84	2343,20
567,30	2339,20
567,75	2346,00
568,21	2348,20
568,67	2344,60
569,13	2343,80
569,58	2354,20
570,04	2344,80
570,50	2345,00
570,96	2357,00
571,41	2348,20
571,87	2340,60
572,33	2354,20
572,78	2349,80
573,24	2333,80
573,70	2338,60
574,16	2346,20
574,61	2358,00
575,07	2352,40
575,53	2339,60
575,98	2346,00
576,44	2331,80
576,90	2356,20
577,36	2342,40
577,81	2344,80
578,27	2336,20
578,73	2364,80
579,18	2349,60
579,64	2338,80
580,10	2348,00
580,55	2349,40
581,01	2339,80
581,47	2339,00
581,92	2347,00
582,38	2343,00
582,84	2337,20
583,29	2337,80
583,75	2353,20
584,21	2346,00
584,66	2350,00
585,12	2338,40
585,57	2375,20
586,03	2337,20
586,49	2343,60
586,94	2339,60
587,40	2345,40
587,86	2353,00
588,31	2333,20
588,77	2351,00
589,22	2342,00
589,68	2341,00
590,14	2352,60
590,59	2353,40
591,05	2341,60
591,51	2331,00
591,96	2363,60
592,42	2341,00
592,87	2349,20
593,33	2345,80
593,78	2351,40
594,24	2346,20
594,70	2340,60
595,15	2356,00
595,61	2337,80
596,06	2330,40
596,52	2361,40
596,98	2358,40
597,43	2355,20
597,89	2343,60
598,34	2336,20
598,80	2344,60
599,25	2360,00
599,71	2339,20
600,16	2352,40
600,62	2357,00
601,08	2345,80
601,53	2348,60
601,99	2328,20
602,44	2380,00
602,90	2345,00
603,35	2336,80
603,81	2332,40
604,26	2331,80
604,72	2351,80
605,17	2337,60
605,63	2347,60
606,08	2346,60
606,54	2335,80
606,99	2345,00
607,45	2344,00
607,90	2342,60
608,36	2349,00
608,81	2349,80
609,27	2374,00
609,72	2363,00
610,18	2339,60
610,63	2336,20
611,09	2346,60
611,54	2332,80
612,00	2364,40
612,45	2354,00
612,91	2348,00
613,36	2382,60
613,82	2337,20
614,27	2334,20
614,73	2339,00
615,18	2335,60
615,64	2340,20
616,09	2350,40
616,54	2336,80
617,00	2342,80
617,45	2341,60
617,91	2348,00
618,36	2335,20
618,82	2336,60
619,27	2344,80
619,72	2349,00
620,18	2341,60
620,63	2353,00
621,09	2355,00
621,54	2343,00
622,00	2359,00
622,45	2356,00
622,90	2357,40
623,36	2340,40
623,81	2336,60
624,27	2355,20
624,72	2335,20
625,17	2342,60
625,63	2346,40
626,08	2335,20
626,54	2347,40
626,99	2345,20
627,44	2340,60
627,90	2348,00
628,35	2357,80
628,81	2329,40
629,26	2339,80
629,71	2346,60
630,17	2331,20
630,62	2350,00
631,07	2344,20
631,53	2358,80
631,98	2346,80
632,43	2356,20
632,89	2338,00
633,34	2336,20
633,79	2338,20
634,25	2339,00
634,70	2327,20
635,15	2338,60
635,61	2334,20
636,06	2335,20
636,51	2348,20
636,97	2340,40
637,42	2332,80
637,87	2355,00
638,33	2349,60
638,78	2338,20
639,23	2344,20
639,69	2325,20
640,14	2329,60
640,59	2348,20
641,05	2359,60
641,50	2333,60
641,95	2338,60
642,40	2346,80
642,86	2329,80
643,31	2335,60
643,76	2348,40
644,22	2341,00
644,67	2333,40
645,12	2342,40
645,57	2336,40
646,03	2342,20
646,48	2350,80
646,93	2348,00
647,38	2346,40
647,84	2346,80
648,29	2340,20
648,74	2330,80
649,19	2354,80
649,65	2345,00
650,10	2395,80
650,55	2327,20
651,00	2336,20
651,46	2333,20
651,91	2353,40
652,36	2333,60
652,81	2347,20
653,27	2346,00
653,72	2330,60
654,17	2349,60
654,62	2350,60
655,07	2337,40
655,53	2330,40
655,98	2346,20
656,43	2338,80
656,88	2343,00
657,33	2345,60
657,79	2353,40
658,24	2333,60
658,69	2340,40
659,14	2333,60
659,59	2388,20
660,05	2340,20
660,50	2353,40
660,95	2343,20
661,40	2332,20
661,85	2342,00
662,30	2339,00
662,76	2331,20
663,21	2346,60
663,66	2341,60
664,11	2342,80
664,56	2338,00
665,01	2332,40
665,47	2346,40
665,92	2334,80
666,37	2343,00
666,82	2350,40
667,27	2374,40
667,72	2356,60
668,17	2335,60
668,62	2347,80
669,08	2336,40
669,53	2367,40
669,98	2326,60
670,43	2331,60
670,88	2357,80
671,33	2336,40
671,78	2362,20
672,23	2367,60
672,69	2339,60
673,14	2342,60
673,59	2355,40
674,04	2379,20
674,49	2339,40
674,94	2352,00
675,39	2329,40
675,84	2328,60
676,29	2344,20
676,74	2346,60
677,19	2344,60
677,64	2340,40
678,10	2372,00
678,55	2341,00
679,00	2340,80
679,45	2347,60
679,90	2339,60
680,35	2343,00
680,80	2343,40
681,25	2326,40
681,70	2325,60
682,15	2339,20
682,60	2345,20
683,05	2349,80
683,50	2348,60
683,95	2345,40
684,40	2349,80
684,85	2348,20
685,30	2348,60
685,75	2343,40
686,20	2335,00
686,65	2335,20
687,10	2338,60
687,55	2341,40
688,00	2342,60
688,45	2338,60
688,90	2372,20
689,35	2352,60
689,80	2328,80
690,25	2343,40
690,70	2339,60
691,15	2327,80
691,60	2343,00
692,05	2324,20
692,50	2344,20
692,95	2341,00
693,40	2351,00
693,85	2344,00
694,30	2340,40
694,75	2344,60
695,20	2399,80
695,65	2341,80
696,10	2344,20
696,55	2359,40
697,00	2337,80
697,45	2338,20
697,90	2344,20
698,35	2339,20
698,80	2341,60
699,24	2345,00
699,69	2347,00
700,14	2337,20
700,59	2353,40
701,04	2348,60
701,49	2384,80
701,94	2327,60
702,39	2362,20
702,84	2334,00
703,29	2340,20
703,74	2347,20
704,19	2340,00
704,63	2336,40
705,08	2347,40
705,53	2349,40
705,98	2351,60
706,43	2328,20
706,88	2345,40
707,33	2340,40
707,78	2345,80
708,22	2349,60
708,67	2347,40
709,12	2340,60
709,57	2334,80
710,02	2338,80
710,47	2344,80
710,92	2333,00
711,37	2346,20
711,81	2345,00
712,26	2347,20
712,71	2332,60
713,16	2365,00
713,61	2343,40
714,06	2349,00
714,50	2359,00
714,95	2350,60
715,40	2341,80
715,85	2348,40
716,30	2336,00
716,75	2344,80
717,19	2331,60
717,64	2336,00
718,09	2355,40
718,54	2362,20
718,99	2333,20
719,43	2327,60
719,88	2339,20
720,33	2344,40
720,78	2332,40
721,23	2344,00
721,67	2340,00
722,12	2346,40
722,57	2338,60
723,02	2333,60
723,47	2331,60
723,91	2343,20
724,36	2332,60
724,81	2350,40
725,26	2327,60
725,70	2346,20
726,15	2342,40
726,60	2341,40
727,05	2367,60
727,49	2333,20
727,94	2361,20
728,39	2349,20
728,84	2339,00
729,28	2358,60
729,73	2333,60
730,18	2355,60
730,63	2329,80
731,07	2350,80
731,52	2349,80
731,97	2348,20
732,41	2339,40
732,86	2336,20
733,31	2350,60
733,76	2341,20
734,20	2338,20
734,65	2351,40
735,10	2343,40
735,54	2348,80
735,99	2375,40
736,44	2328,60
736,89	2350,60
737,33	2356,00
737,78	2355,80
738,23	2347,40
738,67	2339,40
739,12	2341,60
739,57	2326,60
740,01	2353,40
740,46	2348,20
740,91	2333,20
741,35	2345,40
741,80	2349,20
742,25	2349,20
742,69	2342,00
743,14	2332,80
743,59	2336,20
744,03	2344,60
744,48	2357,40
744,92	2350,60
745,37	2343,80
745,82	2350,40
746,26	2356,00
746,71	2325,80
747,16	2332,20
747,60	2331,40
748,05	2342,80
748,49	2340,40
748,94	2339,60
749,39	2347,00
749,83	2376,40
750,28	2341,00
750,73	2345,00
751,17	2330,20
751,62	2338,60
752,06	2338,80
752,51	2340,40
752,95	2366,40
753,40	2340,00
753,85	2340,20
754,29	2333,60
754,74	2337,40
755,18	2330,20
755,63	2335,40
756,07	2334,80
756,52	2356,40
756,97	2344,20
757,41	2355,20
757,86	2343,60
758,30	2336,00
758,75	2347,60
759,19	2338,80
759,64	2334,60
760,08	2348,60
760,53	2344,60
760,98	2342,00
761,42	2344,20
761,87	2347,60
762,31	2338,40
762,76	2329,40
763,20	2337,80
763,65	2350,80
764,09	2336,20
764,54	2319,20
764,98	2337,80
765,43	2348,00
765,87	2326,60
766,32	2335,80
766,76	2335,40
767,21	2338,80
767,65	2345,80
768,10	2346,20
768,54	2349,80
768,99	2336,80
769,43	2365,20
769,88	2337,20
770,32	2340,40
770,77	2332,80
771,21	2333,40
771,65	2345,80
772,10	2342,40
772,54	2341,60
772,99	2330,00
773,43	2344,80
773,88	2342,20
774,32	2322,80
774,77	2342,60
775,21	2336,60
775,65	2338,20
776,10	2348,20
776,54	2343,00
776,99	2337,60
777,43	2335,00
777,88	2353,60
778,32	2349,00
778,76	2337,80
779,21	2351,20
779,65	2375,20
780,10	2356,80
780,54	2339,20
780,99	2356,20
781,43	2342,80
781,87	2332,60
782,32	2344,80
782,76	2327,20
783,20	2343,60
783,65	2349,60
784,09	2352,60
784,54	2342,00
784,98	2338,20
785,42	2339,60
785,87	2335,00
786,31	2350,60
786,75	2357,20
787,20	2354,40
787,64	2324,40
788,09	2335,80
788,53	2338,20
788,97	2336,40
789,42	2335,60
789,86	2340,00
790,30	2343,00
790,75	2341,00
791,19	2333,40
791,63	2350,60
792,08	2330,80
792,52	2335,80
792,96	2338,80
793,41	2387,40
793,85	2358,60
794,29	2352,00
794,74	2348,40
795,18	2338,00
795,62	2328,60
796,06	2345,80
796,51	2345,40
796,95	2342,20
797,39	2335,40
797,84	2333,00
798,28	2339,60
798,72	2354,40
799,16	2336,60
799,61	2332,40
800,05	2361,60
800,49	2343,60
800,94	2337,20
801,38	2340,00
801,82	2345,00
802,26	2327,40
802,71	2355,00
803,15	2358,20
803,59	2351,00
804,03	2343,00
804,48	2344,40
804,92	2333,40
805,36	2368,60
805,80	2364,80
806,25	2367,80
806,69	2347,40
807,13	2367,40
807,57	2341,20
808,01	2343,40
808,46	2333,20
808,90	2353,20
809,34	2347,00
809,78	2332,80
810,23	2339,20
810,67	2345,80
811,11	2356,60
811,55	2382,00
811,99	2342,20
812,44	2332,20
812,88	2348,00
813,32	2358,20
813,76	2347,40
814,20	2347,20
814,64	2350,80
815,09	2348,00
815,53	2346,40
815,97	2335,40
816,41	2340,40
816,85	2340,80
817,29	2348,60
817,74	2342,60
818,18	2354,80
818,62	2342,60
819,06	2349,00
819,50	2359,20
819,94	2337,40
820,39	2351,80
820,83	2338,40
821,27	2340,00
821,71	2341,60
822,15	2353,00
822,59	2334,20
823,03	2347,40
823,47	2342,40
823,92	2328,60
824,36	2346,40
824,80	2340,80
825,24	2344,60
825,68	2347,60
826,12	2330,20
826,56	2341,60
827,00	2324,20
827,44	2342,40
827,88	2348,60
828,33	2353,00
828,77	2338,60
829,21	2350,40
829,65	2344,60
830,09	2339,80
830,53	2358,80
830,97	2341,20
831,41	2365,80
831,85	2348,40
832,29	2354,00
832,73	2327,60
833,17	2342,60
833,61	2341,40
834,05	2355,40
834,49	2352,60
834,93	2339,20
835,37	2340,00
835,82	2344,60
836,26	2335,60
836,70	2346,20
837,14	2341,80
837,58	2350,20
838,02	2332,60
838,46	2342,00
838,90	2350,60
839,34	2341,60
839,78	2364,20
840,22	2371,60
840,66	2343,80
841,10	2356,20
841,54	2330,40
841,98	2334,20
842,42	2334,20
842,86	2337,40
843,30	2344,40
843,74	2349,40
844,18	2352,20
844,62	2344,20
845,06	2343,80
845,50	2352,00
845,94	2338,60
846,37	2358,00
846,81	2339,20
847,25	2341,20
847,69	2345,80
848,13	2335,00
848,57	2341,60
849,01	2340,00
849,45	2349,20
849,89	2360,40
850,33	2350,80
850,77	2336,60
851,21	2354,20
851,65	2343,80
852,09	2343,00
852,53	2356,00
852,97	2338,20
853,40	2335,00
853,84	2345,00
854,28	2331,80
854,72	2352,40
855,16	2330,20
855,60	2335,80
856,04	2355,80
856,48	2360,60
856,92	2341,40
857,36	2343,80
857,79	2346,20
858,23	2331,80
858,67	2356,00
859,11	2321,00
859,55	2333,60
859,99	2341,20
860,43	2344,40
860,87	2342,60
861,30	2353,20
861,74	2333,40
862,18	2342,60
862,62	2347,20
863,06	2334,80
863,50	2330,20
863,94	2348,20
864,37	2338,80
864,81	2345,00
865,25	2340,80
865,69	2335,40
866,13	2344,60
866,57	2332,80
867,00	2351,60
867,44	2343,00
867,88	2347,20
868,32	2340,00
868,76	2342,40
869,19	2344,00
869,63	2341,60
870,07	2362,40
870,51	2374,80
870,95	2332,80
871,38	2345,20
871,82	2343,20
872,26	2338,00
872,70	2347,00
873,14	2347,80
873,57	2350,60
874,01	2355,80
874,45	2352,60
874,89	2342,80
875,32	2330,80
875,76	2352,80
876,20	2334,60
876,64	2333,00
877,07	2341,20
877,51	2346,80
877,95	2347,00
878,39	2341,40
878,82	2344,40
879,26	2340,80
879,70	2365,00
880,14	2330,20
880,57	2336,20
881,01	2341,60
881,45	2337,40
881,89	2351,20
882,32	2340,20
882,76	2336,60
883,20	2341,40
883,63	2340,20
884,07	2332,40
884,51	2346,40
884,94	2348,60
885,38	2343,60
885,82	2349,80
886,26	2337,60
886,69	2333,40
887,13	2360,20
887,57	2327,80
888,00	2334,00
888,44	2342,00
888,88	2339,00
889,31	2380,60
889,75	2333,40
890,19	2352,80
890,62	2331,80
891,06	2349,60
891,50	2352,80
891,93	2333,60
892,37	2334,80
892,81	2341,20
893,24	2329,60
893,68	2337,80
894,11	2344,00
894,55	2340,00
894,99	2347,80
895,42	2341,20
895,86	2336,00
896,30	2349,60
896,73	2342,60
897,17	2329,40
897,60	2333,00
898,04	2332,40
898,48	2343,60
898,91	2351,60
899,35	2335,00
899,78	2333,60
900,22	2340,40
900,66	2356,20
901,09	2351,60
901,53	2341,20
901,96	2362,80
902,40	2363,60
902,84	2333,00
903,27	2334,00
903,71	2371,00
904,14	2332,20
904,58	2341,00
905,01	2344,40
905,45	2340,20
905,88	2331,20
906,32	2357,80
906,76	2332,20
907,19	2354,00
907,63	2341,40
908,06	2339,40
908,50	2344,60
908,93	2356,80
909,37	2335,20
909,80	2332,80
910,24	2348,80
910,67	2345,80
911,11	2338,00
911,54	2340,60
911,98	2338,60
912,41	2343,60
912,85	2337,20
913,28	2350,20
913,72	2349,40
914,15	2342,20
914,59	2329,40
915,02	2330,00
915,46	2343,60
915,89	2338,00
916,33	2349,60
916,76	2337,60
917,20	2357,60
917,63	2343,00
918,07	2351,00
918,50	2335,80
918,94	2336,40
919,37	2340,20
919,81	2350,80
920,24	2355,60
920,67	2346,40
921,11	2366,00
921,54	2351,80
921,98	2340,20
922,41	2336,00
922,85	2331,60
923,28	2339,40
923,72	2362,00
924,15	2353,20
924,58	2330,00
925,02	2351,80
925,45	2333,00
925,89	2346,60
926,32	2373,40
926,75	2337,40
927,19	2352,40
927,62	2330,20
928,06	2368,80
928,49	2339,00
928,92	2331,40
929,36	2353,80
929,79	2345,00
930,23	2350,80
930,66	2354,20
931,09	2337,80
931,53	2353,20
931,96	2325,80
932,39	2364,20
932,83	2350,00
933,26	2371,00
933,70	2343,00
934,13	2354,60
934,56	2350,40
935,00	2347,80
935,43	2339,20
935,86	2332,40
936,30	2350,20
936,73	2338,40
937,16	2342,40
937,60	2333,40
938,03	2348,80
938,46	2335,00
938,90	2334,40
939,33	2348,20
939,76	2334,00
940,19	2331,40
940,63	2349,60
941,06	2372,00
941,49	2334,00
941,93	2358,80
942,36	2334,20
942,79	2338,80
943,23	2353,60
943,66	2327,80
944,09	2326,80
944,52	2350,40
944,96	2345,00
945,39	2352,20
945,82	2347,80
946,26	2348,80
946,69	2353,00
947,12	2358,20
947,55	2345,60
947,99	2340,80
948,42	2349,80
948,85	2331,60
949,28	2331,20
949,72	2333,00
950,15	2375,60
950,58	2360,40
951,01	2336,60
951,45	2341,20
951,88	2344,40
952,31	2327,20
952,74	2352,80
953,17	2342,20
953,61	2362,40
954,04	2328,20
954,47	2335,00
954,90	2336,80
955,33	2340,60
955,77	2338,60
956,20	2354,60
956,63	2331,80
957,06	2348,40
957,49	2382,20
957,93	2323,20
958,36	2349,00
958,79	2340,80
959,22	2336,20
959,65	2334,60
960,08	2337,80
960,52	2327,00
960,95	2339,00
961,38	2351,20
961,81	2344,80
962,24	2351,20
962,67	2349,20
963,11	2335,00
963,54	2347,40
963,97	2341,60
964,40	2346,40
964,83	2342,80
965,26	2339,80
965,69	2354,40
966,13	2340,00
966,56	2342,00
966,99	2355,80
967,42	2337,80
967,85	2334,20
968,28	2349,20
968,71	2391,40
969,14	2353,20
969,57	2341,00
970,01	2351,20
970,44	2338,60
970,87	2334,80
971,30	2351,20
971,73	2339,00
972,16	2344,00
972,59	2328,00
973,02	2332,40
973,45	2336,60
973,88	2343,00
974,31	2343,20
974,74	2358,40
975,17	2346,00
975,61	2337,00
976,04	2339,00
976,47	2336,60
976,90	2347,80
977,33	2336,60
977,76	2348,40
978,19	2341,20
978,62	2338,40
979,05	2337,20
979,48	2340,40
979,91	2349,20
980,34	2344,20
980,77	2339,80
981,20	2346,00
981,63	2359,20
982,06	2340,40
982,49	2342,60
982,92	2338,80
983,35	2338,80
983,78	2335,40
984,21	2353,00
984,64	2346,60
985,07	2335,60
985,50	2325,60
985,93	2336,00
986,36	2348,80
986,79	2342,40
987,22	2333,80
987,65	2349,40
988,08	2342,00
988,51	2348,20
988,94	2339,80
989,37	2349,00
989,80	2346,60
990,23	2338,20
990,66	2338,40
991,09	2344,00
991,51	2340,20
991,94	2362,40
992,37	2335,20
992,80	2335,20
993,23	2338,00
993,66	2340,80
994,09	2344,40
994,52	2349,40
994,95	2347,40
995,38	2351,40
995,81	2346,40
996,24	2328,20
996,67	2333,40
997,09	2326,20
997,52	2352,80
997,95	2346,00
998,38	2335,60
998,81	2343,40
999,24	2338,80
999,67	2360,80
1000,10	2338,40
1000,53	2347,60
1000,95	2352,60
1001,38	2332,60
1001,81	2341,80
1002,24	2346,60
1002,67	2339,00
1003,10	2343,60
1003,53	2338,80
1003,95	2351,60
1004,38	2331,20
1004,81	2349,00
1005,24	2347,60
1005,67	2356,60
1006,10	2343,60
1006,52	2329,60
1006,95	2351,40
1007,38	2341,00
1007,81	2338,40
1008,24	2328,40
1008,67	2342,40
1009,09	2338,80
1009,52	2384,80
1009,95	2347,60
1010,38	2351,80
1010,81	2346,20
1011,23	2346,40
1011,66	2359,00
1012,09	2341,20
1012,52	2353,20
1012,95	2343,40
1013,37	2341,40
1013,80	2341,20
1014,23	2340,20
1014,66	2362,40
1015,08	2335,20
1015,51	2348,40
1015,94	2335,40
1016,37	2346,00
1016,80	2338,60
1017,22	2341,60
1017,65	2346,20
1018,08	2622,40
1018,51	2334,60
1018,93	2329,40
1019,36	2376,60
1019,79	2356,00
1020,21	2352,40
1020,64	2346,60
1021,07	2343,40
1021,50	2345,60
1021,92	2347,80
1022,35	2349,40
1022,78	2341,40
1023,21	2388,40
1023,63	2355,20
1024,06	2356,60
1024,49	2356,40
1024,91	2344,80
1025,34	2345,20
1025,77	2358,60
1026,19	2331,60
1026,62	2334,80
1027,05	2373,80
1027,47	2351,00
1027,90	2346,20
1028,33	2343,40
1028,75	2345,20
1029,18	2340,60
1029,61	2369,40
1030,03	2344,80
1030,46	2337,80
1030,89	2345,00
1031,31	2362,20
1031,74	2329,60
1032,17	2349,60
1032,59	2355,40
1033,02	2342,40
1033,45	2352,40
1033,87	2333,60
1034,30	2338,80
1034,73	2352,60
1035,15	2352,80
1035,58	2341,60
1036,00	2362,60
1036,43	2336,80
1036,86	2342,20
1037,28	2346,60
1037,71	2335,60
1038,13	2346,60
1038,56	2350,60
1038,99	2356,40
1039,41	2355,20
1039,84	2368,60
1040,26	2342,60
1040,69	2341,20
1041,11	2358,40
1041,54	2338,40
1041,97	2364,80
1042,39	2364,00
1042,82	2348,40
1043,24	2358,00
1043,67	2344,80
1044,09	2358,60
1044,52	2342,40
1044,95	2350,20
1045,37	2339,40
1045,80	2338,40
1046,22	2347,40
1046,65	2347,20
1047,07	2339,80
1047,50	2348,60
1047,92	2353,40
1048,35	2336,80
1048,77	2356,60
1049,20	2355,80
1049,62	2350,60
1050,05	2346,80
1050,47	2343,20
1050,90	2346,40
1051,32	2352,80
1051,75	2357,40
1052,17	2359,40
1052,60	2347,20
1053,02	2355,60
1053,45	2325,00
1053,87	2348,80
1054,30	2328,20
1054,72	2342,60
1055,15	2336,80
1055,57	2341,20
1056,00	2344,60
1056,42	2368,40
1056,85	2358,00
1057,27	2356,00
1057,70	2346,80
1058,12	2392,20
1058,54	2340,40
1058,97	2353,20
1059,39	2345,20
1059,82	2350,80
1060,24	2345,60
1060,67	2337,20
1061,09	2360,00
1061,51	2344,00
1061,94	2336,60
1062,36	2349,60
1062,79	2362,00
1063,21	2345,00
1063,64	2344,40
1064,06	2335,80
1064,48	2355,40
1064,91	2354,80
1065,33	2340,20
1065,76	2335,80
1066,18	2330,00
1066,60	2355,60
1067,03	2346,20
1067,45	2347,80
1067,87	2347,20
1068,30	2343,60
1068,72	2369,60
1069,15	2352,20
1069,57	2336,80
1069,99	2335,60
1070,42	2356,80
1070,84	2362,60
1071,26	2354,20
1071,69	2344,00
1072,11	2353,00
1072,53	2338,00
1072,96	2339,60
1073,38	2329,80
1073,80	2351,80
1074,23	2347,80
1074,65	2336,60
1075,07	2341,80
1075,50	2342,00
1075,92	2349,60
1076,34	2340,00
1076,77	2337,40
1077,19	2342,40
1077,61	2352,80
1078,04	2342,20
1078,46	2354,40
1078,88	2365,20
1079,30	2329,80
1079,73	2352,00
1080,15	2343,80
1080,57	2348,00
1081,00	2352,20
1081,42	2344,20
1081,84	2338,20
1082,26	2348,00
1082,69	2341,80
1083,11	2347,60
1083,53	2344,40
1083,95	2351,00
1084,38	2352,40
1084,80	2339,80
1085,22	2341,60
1085,64	2359,00
1086,07	2335,00
1086,49	2343,60
1086,91	2354,80
1087,33	2333,00
1087,76	2349,40
1088,18	2754,00
1088,60	2350,80
1089,02	2337,80
1089,45	2339,80
1089,87	2338,80
1090,29	2356,20
1090,71	2345,60
1091,13	2330,60
1091,56	2343,20
1091,98	2338,40
1092,40	2337,40
1092,82	2344,40
1093,24	2332,60
1093,66	2342,00
1094,09	2338,80
1094,51	2346,60
1094,93	2339,00
1095,35	2339,60
1095,77	2344,40
1096,19	2340,00
1096,62	2339,80
1097,04	2333,80
1097,46	2343,40
1097,88	2340,60
1098,30	2345,60
1098,72	2350,00
1099,15	2352,80
1099,57	2334,80
1099,99	2338,80
1100,41	2340,40
1100,83	2343,00
1101,25	2331,00
1101,67	2349,20
1102,09	2331,80
1102,52	2336,40
1102,94	2338,00
1103,36	2341,00
1103,78	2342,40
1104,20	2335,00
1104,62	2365,80
1105,04	2331,20
1105,46	2345,00
1105,88	2342,00
1106,30	2337,60
1106,73	2344,40
1107,15	2321,40
1107,57	2329,40
1107,99	2354,80
1108,41	2332,20
1108,83	2338,60
1109,25	2348,80
1109,67	2342,00
1110,09	2328,00
1110,51	2333,60
1110,93	2336,80
1111,35	2338,40
1111,77	2329,80
1112,19	2329,80
1112,61	2326,80
1113,03	2336,80
1113,45	2339,60
1113,87	2332,40
1114,29	2336,40
1114,71	2343,80
1115,13	2332,20
1115,55	2340,60
1115,98	2330,00
1116,40	2341,20
1116,82	2341,00
1117,24	2338,80
1117,66	2328,20
1118,08	2182,40
1118,50	2183,40
1118,91	2182,00
1119,33	2185,80
>>>>>End Processed Spectral Data<<<<<
