SpectraSuite Data File
++++++++++++++++++++++++++++++++++++
Date: Wed Nov 27 17:06:29 EET 2013
User: OO Maya
Dark Spectrum Present: No
Reference Spectrum Present: No
Number of Sampled Component Spectra: 1
Spectrometers: MAYP11278
Integration Time (usec): 5000000 (MAYP11278)
Spectra Averaged: 5 (MAYP11278)
Boxcar Smoothing: 0 (MAYP11278)
Correct for Electrical Dark: No (MAYP11278)
Strobe/Lamp Enabled: No (MAYP11278)
Correct for Detector Non-linearity: No (MAYP11278)
Correct for Stray Light: No (MAYP11278)
Number of Pixels in Processed Spectrum: 2068
>>>>>Begin Processed Spectral Data<<<<<
188,05	2290,20
188,53	2212,80
189,01	2182,00
189,49	2182,40
189,96	7578,60
190,44	8009,40
190,92	7873,60
191,40	8036,00
191,88	8414,20
192,36	7999,40
192,83	7828,20
193,31	7546,00
193,79	7926,20
194,27	7879,80
194,75	8147,80
195,23	7878,20
195,70	8352,20
196,18	7840,60
196,66	7982,40
197,14	9080,20
197,62	7973,00
198,09	7747,20
198,57	7894,20
199,05	7733,40
199,53	8184,20
200,01	8369,40
200,48	7866,20
200,96	7923,00
201,44	8349,80
201,92	8334,20
202,39	8303,00
202,87	7684,00
203,35	8258,00
203,83	7801,60
204,31	8419,00
204,78	8601,00
205,26	7899,00
205,74	7900,40
206,22	8706,40
206,69	7975,00
207,17	8182,80
207,65	9140,40
208,13	8142,80
208,60	8368,20
209,08	8008,80
209,56	8481,60
210,04	8338,60
210,51	8120,60
210,99	8084,60
211,47	8329,40
211,94	8085,40
212,42	7884,80
212,90	8873,20
213,38	8367,40
213,85	7911,60
214,33	8837,00
214,81	8262,80
215,29	8718,40
215,76	8271,60
216,24	8460,20
216,72	8484,60
217,19	8374,20
217,67	7899,40
218,15	8172,80
218,62	8743,80
219,10	7625,40
219,58	7928,20
220,05	7959,60
220,53	8116,20
221,01	9889,00
221,49	7967,80
221,96	8529,00
222,44	7937,00
222,92	8542,60
223,39	8023,40
223,87	8565,00
224,35	8081,00
224,82	8053,00
225,30	7855,60
225,78	8140,00
226,25	7939,00
226,73	8192,60
227,21	8694,40
227,68	8113,40
228,16	8376,40
228,63	8462,80
229,11	8412,00
229,59	8131,20
230,06	8246,60
230,54	8042,40
231,02	8475,00
231,49	8611,60
231,97	8248,00
232,45	8353,80
232,92	7892,00
233,40	8283,60
233,87	8388,60
234,35	9713,40
234,83	8418,00
235,30	8034,00
235,78	7974,00
236,25	7805,60
236,73	8581,00
237,21	9158,60
237,68	8103,40
238,16	8360,80
238,63	8370,60
239,11	8351,80
239,59	8239,80
240,06	7828,20
240,54	8510,60
241,01	8752,80
241,49	8344,40
241,96	8164,80
242,44	8640,60
242,92	8759,80
243,39	7881,20
243,87	8057,20
244,34	8622,40
244,82	8821,80
245,29	8230,80
245,77	8848,60
246,24	8816,20
246,72	8015,00
247,20	8340,60
247,67	8301,60
248,15	8375,60
248,62	8517,40
249,10	7733,20
249,57	8310,60
250,05	8639,00
250,52	8423,20
251,00	8915,20
251,47	8384,80
251,95	9161,80
252,42	8923,80
252,90	8174,60
253,37	8841,00
253,85	8452,40
254,32	8347,40
254,80	8518,20
255,27	8528,40
255,75	8676,60
256,22	8178,40
256,70	8488,20
257,17	8623,20
257,65	8805,80
258,12	9643,60
258,60	8380,20
259,07	8203,80
259,55	8490,60
260,02	8724,00
260,50	9124,60
260,97	8369,00
261,45	8231,40
261,92	8910,00
262,40	8113,60
262,87	8584,60
263,35	8379,00
263,82	7988,80
264,30	8736,20
264,77	8912,20
265,25	8332,80
265,72	8631,80
266,19	8618,80
266,67	8796,60
267,14	8351,60
267,62	8433,80
268,09	8609,20
268,57	8691,60
269,04	7908,20
269,51	8162,00
269,99	8303,00
270,46	8778,00
270,94	8950,40
271,41	8345,20
271,89	8561,00
272,36	8064,60
272,83	8069,00
273,31	7814,20
273,78	8540,20
274,26	10022,80
274,73	8793,00
275,20	8852,40
275,68	8327,20
276,15	8451,40
276,63	8703,20
277,10	8886,80
277,57	8174,20
278,05	8502,00
278,52	8184,60
279,00	10359,00
279,47	8440,00
279,94	8415,60
280,42	10161,60
280,89	8892,80
281,36	9902,60
281,84	8311,20
282,31	9013,00
282,78	8469,40
283,26	8493,80
283,73	8732,40
284,21	8206,00
284,68	8161,80
285,15	8888,20
285,63	8533,40
286,10	8739,40
286,57	8652,00
287,05	8052,60
287,52	8733,40
287,99	9162,80
288,47	8444,20
288,94	8757,60
289,41	7886,80
289,89	9119,60
290,36	8261,60
290,83	8695,20
291,30	8273,80
291,78	8718,20
292,25	9476,80
292,72	8245,60
293,20	9001,80
293,67	8359,20
294,14	8733,00
294,62	8676,20
295,09	8256,40
295,56	8468,80
296,03	8626,80
296,51	9284,60
296,98	9163,40
297,45	8783,20
297,93	8666,40
298,40	8649,20
298,87	8320,00
299,34	9137,80
299,82	8443,40
300,29	8624,40
300,76	8273,20
301,23	8876,20
301,71	8871,60
302,18	8855,80
302,65	8087,20
303,12	8718,40
303,60	8896,60
304,07	8137,40
304,54	8266,40
305,01	8157,80
305,49	8537,00
305,96	8641,20
306,43	8522,80
306,90	8699,60
307,38	8292,40
307,85	8319,00
308,32	8523,40
308,79	8333,40
309,27	8801,60
309,74	8879,40
310,21	8571,20
310,68	8504,20
311,15	8602,60
311,63	8200,40
312,10	8855,40
312,57	8393,20
313,04	9177,80
313,51	8171,60
313,99	8319,00
314,46	8488,60
314,93	8250,80
315,40	8187,60
315,87	8834,60
316,34	8733,00
316,82	8589,00
317,29	8701,60
317,76	8516,80
318,23	9671,60
318,70	8458,40
319,17	8400,40
319,65	7921,40
320,12	8592,20
320,59	9245,20
321,06	8717,40
321,53	8327,40
322,00	7813,20
322,48	8059,00
322,95	9114,60
323,42	8294,60
323,89	9398,20
324,36	7958,20
324,83	8519,00
325,30	8361,80
325,78	8365,60
326,25	8314,60
326,72	8243,00
327,19	8664,20
327,66	8577,60
328,13	8630,60
328,60	8495,80
329,07	8310,60
329,54	8257,00
330,02	8244,20
330,49	8165,60
330,96	8752,60
331,43	8579,40
331,90	9117,20
332,37	8111,20
332,84	9249,40
333,31	8667,00
333,78	8673,40
334,25	8974,40
334,72	8550,60
335,20	8661,20
335,67	9991,20
336,14	8024,00
336,61	8385,80
337,08	8286,40
337,55	8573,60
338,02	8305,00
338,49	8329,00
338,96	9062,20
339,43	8799,20
339,90	8074,40
340,37	8168,40
340,84	8079,80
341,31	8596,60
341,78	8792,00
342,25	8267,00
342,72	8561,40
343,19	8720,40
343,67	8544,80
344,14	8234,40
344,61	8412,20
345,08	8120,60
345,55	8390,40
346,02	8706,20
346,49	8217,40
346,96	8157,80
347,43	9065,20
347,90	8232,60
348,37	8876,20
348,84	8458,00
349,31	7963,60
349,78	8462,80
350,25	8760,80
350,72	8449,40
351,19	8130,20
351,66	8575,20
352,13	9186,00
352,60	8525,80
353,07	8326,40
353,54	8497,80
354,01	8654,80
354,48	8540,60
354,94	8739,60
355,41	8543,40
355,88	9134,20
356,35	8217,80
356,82	9154,20
357,29	8128,80
357,76	9405,40
358,23	8746,20
358,70	8074,80
359,17	8104,80
359,64	8271,60
360,11	8284,20
360,58	8791,00
361,05	9043,80
361,52	8328,40
361,99	8384,80
362,46	8439,60
362,93	8337,20
363,39	8422,60
363,86	9405,00
364,33	8687,80
364,80	8218,80
365,27	8777,60
365,74	8248,80
366,21	8017,00
366,68	9542,40
367,15	8433,60
367,62	14487,40
368,09	7763,60
368,55	8105,80
369,02	8772,20
369,49	8072,80
369,96	8804,80
370,43	8554,40
370,90	8256,20
371,37	8367,00
371,84	8646,40
372,31	8193,20
372,77	7919,60
373,24	8272,40
373,71	8441,20
374,18	8020,60
374,65	8131,40
375,12	8507,20
375,59	7838,20
376,05	9096,20
376,52	8295,40
376,99	8017,40
377,46	8023,80
377,93	8588,80
378,40	8544,40
378,86	8499,20
379,33	8465,80
379,80	8430,20
380,27	8701,00
380,74	9148,60
381,21	8505,00
381,67	9142,20
382,14	9121,20
382,61	7968,20
383,08	8627,40
383,55	8350,00
384,02	8891,60
384,48	8585,20
384,95	10785,40
385,42	8559,40
385,89	8371,80
386,36	8531,00
386,82	9332,60
387,29	8235,40
387,76	8134,80
388,23	8985,80
388,69	8788,80
389,16	9128,80
389,63	8423,60
390,10	8854,80
390,57	8827,60
391,03	8980,60
391,50	8968,00
391,97	8901,00
392,44	9010,60
392,90	8827,60
393,37	8868,20
393,84	10027,80
394,31	9050,40
394,77	9645,80
395,24	8999,40
395,71	9637,20
396,18	11579,40
396,64	9059,80
397,11	9929,20
397,58	10194,40
398,05	9597,60
398,51	10070,40
398,98	10042,60
399,45	10087,60
399,92	11170,80
400,38	10596,40
400,85	11229,20
401,32	11365,00
401,78	12016,40
402,25	12305,00
402,72	12601,40
403,18	12705,00
403,65	14179,00
404,12	13919,00
404,59	15107,20
405,05	15925,60
405,52	16411,40
405,99	16366,00
406,45	18001,00
406,92	18823,80
407,39	20576,60
407,85	20840,60
408,32	22110,60
408,79	23555,20
409,25	24239,60
409,72	26465,20
410,19	27102,60
410,65	29586,40
411,12	30723,80
411,59	33262,80
412,05	35010,00
412,52	37128,80
412,99	40569,60
413,45	43225,60
413,92	46841,60
414,39	50200,80
414,85	54273,40
415,32	57213,20
415,78	61681,60
416,25	64000,00
416,72	64000,00
417,18	64000,00
417,65	64000,00
418,12	64000,00
418,58	64000,00
419,05	64000,00
419,51	64000,00
419,98	64000,00
420,45	64000,00
420,91	64000,00
421,38	64000,00
421,84	64000,00
422,31	64000,00
422,78	64000,00
423,24	64000,00
423,71	64000,00
424,17	64000,00
424,64	64000,00
425,11	64000,00
425,57	64000,00
426,04	64000,00
426,50	64000,00
426,97	64000,00
427,43	64000,00
427,90	64000,00
428,37	64000,00
428,83	64000,00
429,30	64000,00
429,76	64000,00
430,23	64000,00
430,69	64000,00
431,16	64000,00
431,62	64000,00
432,09	64000,00
432,55	64000,00
433,02	64000,00
433,48	64000,00
433,95	64000,00
434,42	64000,00
434,88	64000,00
435,35	64000,00
435,81	64000,00
436,28	64000,00
436,74	64000,00
437,21	64000,00
437,67	64000,00
438,14	64000,00
438,60	64000,00
439,07	64000,00
439,53	64000,00
440,00	64000,00
440,46	64000,00
440,93	64000,00
441,39	64000,00
441,86	64000,00
442,32	64000,00
442,79	64000,00
443,25	64000,00
443,72	64000,00
444,18	64000,00
444,64	64000,00
445,11	64000,00
445,57	64000,00
446,04	64000,00
446,50	64000,00
446,97	64000,00
447,43	64000,00
447,90	64000,00
448,36	64000,00
448,83	64000,00
449,29	64000,00
449,75	64000,00
450,22	64000,00
450,68	64000,00
451,15	64000,00
451,61	64000,00
452,08	64000,00
452,54	64000,00
453,00	64000,00
453,47	64000,00
453,93	64000,00
454,40	64000,00
454,86	64000,00
455,32	64000,00
455,79	64000,00
456,25	64000,00
456,72	64000,00
457,18	64000,00
457,64	64000,00
458,11	64000,00
458,57	64000,00
459,04	64000,00
459,50	64000,00
459,96	64000,00
460,43	64000,00
460,89	64000,00
461,36	64000,00
461,82	64000,00
462,28	64000,00
462,75	64000,00
463,21	63064,20
463,67	60478,80
464,14	58643,80
464,60	56754,20
465,06	54606,00
465,53	52929,60
465,99	51680,40
466,45	49448,40
466,92	47962,00
467,38	46129,00
467,84	44172,00
468,31	42728,20
468,77	41131,80
469,23	39362,00
469,70	37646,80
470,16	36715,00
470,62	35187,00
471,09	33731,20
471,55	32610,00
472,01	31329,00
472,48	30496,20
472,94	29609,40
473,40	29399,00
473,87	28023,20
474,33	27033,00
474,79	26489,00
475,25	25424,80
475,72	25282,60
476,18	24387,40
476,64	23806,00
477,11	23041,20
477,57	22445,40
478,03	22508,20
478,49	21315,20
478,96	20953,20
479,42	19756,40
479,88	20194,40
480,35	19128,40
480,81	18523,20
481,27	17796,60
481,73	17467,40
482,20	17208,20
482,66	16405,20
483,12	16333,80
483,58	15611,00
484,05	15711,80
484,51	16257,40
484,97	15417,80
485,43	15033,40
485,89	14266,00
486,36	14419,20
486,82	13870,00
487,28	14328,40
487,74	13533,80
488,21	13313,00
488,67	13338,40
489,13	13449,00
489,59	13215,20
490,05	13401,40
490,52	12426,40
490,98	12684,60
491,44	11881,80
491,90	11999,40
492,36	11504,00
492,83	12401,20
493,29	11864,60
493,75	11667,20
494,21	11210,60
494,67	11269,20
495,14	11022,80
495,60	10884,20
496,06	11142,40
496,52	10821,20
496,98	10910,40
497,44	11666,40
497,91	11243,40
498,37	10474,60
498,83	10682,20
499,29	10458,40
499,75	11595,40
500,21	10481,40
500,67	10170,60
501,14	10333,00
501,60	10096,40
502,06	10455,20
502,52	10176,20
502,98	10086,40
503,44	9976,80
503,90	10190,20
504,37	9677,00
504,83	10013,40
505,29	9980,20
505,75	9469,40
506,21	9746,00
506,67	10093,80
507,13	9628,60
507,59	9888,20
508,05	9756,00
508,51	9267,60
508,98	9223,00
509,44	8973,80
509,90	9266,00
510,36	9443,20
510,82	9155,00
511,28	9925,80
511,74	9851,40
512,20	9056,00
512,66	8785,20
513,12	9024,80
513,58	9474,00
514,04	8564,00
514,51	9598,40
514,97	9967,20
515,43	8618,20
515,89	9258,80
516,35	9588,20
516,81	9492,00
517,27	10209,00
517,73	9313,20
518,19	9085,60
518,65	10685,80
519,11	9044,20
519,57	8786,80
520,03	8572,60
520,49	8733,80
520,95	9057,00
521,41	9230,00
521,87	9304,40
522,33	8877,80
522,79	8492,20
523,25	9671,00
523,71	9282,80
524,17	8767,00
524,63	9534,20
525,09	9130,00
525,55	9109,20
526,01	9377,40
526,47	9028,00
526,93	8863,40
527,39	8685,80
527,85	8750,80
528,31	9141,80
528,77	9126,40
529,23	8669,80
529,69	8430,20
530,15	9026,60
530,61	9093,80
531,07	8237,60
531,53	9208,20
531,99	8753,20
532,45	8735,20
532,91	8701,60
533,37	8978,20
533,83	8631,00
534,29	8298,60
534,75	8612,00
535,21	8477,40
535,67	8806,40
536,12	8456,40
536,58	8867,00
537,04	8355,60
537,50	8921,20
537,96	8661,40
538,42	8734,60
538,88	9441,00
539,34	8888,60
539,80	11147,20
540,26	8152,00
540,72	9403,80
541,18	8772,80
541,63	8242,00
542,09	8874,00
542,55	8790,80
543,01	8485,60
543,47	9892,80
543,93	8205,80
544,39	9489,60
544,85	8952,60
545,31	8541,20
545,76	8510,20
546,22	9117,40
546,68	8681,20
547,14	8786,20
547,60	8957,40
548,06	8695,60
548,52	8523,40
548,98	8482,80
549,43	8336,40
549,89	9642,20
550,35	8490,00
550,81	8188,60
551,27	8751,00
551,73	8645,80
552,19	9420,20
552,64	8689,40
553,10	8252,20
553,56	8821,00
554,02	8477,80
554,48	8231,60
554,93	8714,80
555,39	8725,60
555,85	9366,60
556,31	8657,20
556,77	9081,60
557,23	7989,00
557,68	8708,80
558,14	9501,00
558,60	8475,40
559,06	8498,20
559,52	8266,20
559,97	8300,20
560,43	8179,20
560,89	8538,20
561,35	8449,60
561,81	8547,20
562,26	8387,40
562,72	8266,40
563,18	8578,80
563,64	9039,80
564,09	8182,40
564,55	8646,00
565,01	8399,60
565,47	8470,60
565,92	8584,20
566,38	9047,60
566,84	8406,40
567,30	8276,20
567,75	8578,60
568,21	8925,00
568,67	8271,40
569,13	8497,00
569,58	8851,80
570,04	8563,20
570,50	8543,00
570,96	8875,20
571,41	8848,00
571,87	8525,80
572,33	8632,20
572,78	8695,20
573,24	8279,20
573,70	8320,40
574,16	8522,60
574,61	9042,40
575,07	8922,00
575,53	8084,20
575,98	8589,40
576,44	7821,60
576,90	8996,60
577,36	8362,80
577,81	8340,40
578,27	8037,00
578,73	9052,40
579,18	8486,80
579,64	8320,80
580,10	8604,60
580,55	8638,60
581,01	8445,40
581,47	8480,60
581,92	8581,20
582,38	8433,00
582,84	8064,80
583,29	8479,60
583,75	8610,40
584,21	8466,20
584,66	8787,00
585,12	8253,00
585,57	9669,40
586,03	8365,00
586,49	8417,20
586,94	8438,00
587,40	8447,20
587,86	8873,80
588,31	8163,40
588,77	8681,40
589,22	8450,60
589,68	8230,40
590,14	8652,40
590,59	8847,00
591,05	8311,40
591,51	8018,00
591,96	9075,00
592,42	8251,00
592,87	8592,80
593,33	8479,40
593,78	8908,60
594,24	8547,00
594,70	8388,00
595,15	9007,00
595,61	8314,40
596,06	8094,20
596,52	9151,00
596,98	8778,20
597,43	9013,60
597,89	8524,80
598,34	7996,80
598,80	8491,00
599,25	9035,60
599,71	8240,80
600,16	8714,60
600,62	8933,00
601,08	8679,60
601,53	8776,00
601,99	8002,00
602,44	9802,20
602,90	8374,60
603,35	8452,40
603,81	8002,40
604,26	7880,80
604,72	8688,20
605,17	8333,80
605,63	8666,00
606,08	8533,80
606,54	7939,20
606,99	8447,20
607,45	8315,80
607,90	8479,40
608,36	8722,60
608,81	8453,40
609,27	9557,00
609,72	8848,40
610,18	8418,80
610,63	8242,40
611,09	8589,80
611,54	8014,80
612,00	9243,60
612,45	8704,00
612,91	8510,60
613,36	9885,60
613,82	7959,40
614,27	8022,00
614,73	8047,80
615,18	8001,20
615,64	8409,80
616,09	8423,00
616,54	8143,60
617,00	8317,20
617,45	8423,60
617,91	8717,60
618,36	8201,40
618,82	8285,20
619,27	8366,60
619,72	8758,80
620,18	8324,80
620,63	8774,80
621,09	8872,00
621,54	8451,20
622,00	8812,20
622,45	9005,00
622,90	8909,00
623,36	8137,60
623,81	8169,20
624,27	8848,20
624,72	7989,40
625,17	8394,00
625,63	8576,40
626,08	8113,40
626,54	8413,80
626,99	8549,80
627,44	8065,40
627,90	8711,60
628,35	8798,40
628,81	7790,40
629,26	8347,00
629,71	8520,60
630,17	8114,00
630,62	8637,80
631,07	8346,40
631,53	8727,00
631,98	8603,20
632,43	8968,40
632,89	8203,80
633,34	8284,40
633,79	8124,40
634,25	8193,80
634,70	8045,20
635,15	8328,60
635,61	8163,60
636,06	7993,60
636,51	8403,60
636,97	8279,60
637,42	8119,40
637,87	8679,60
638,33	8808,60
638,78	8236,20
639,23	8423,40
639,69	8056,80
640,14	7839,00
640,59	8523,20
641,05	8858,60
641,50	7908,20
641,95	8227,80
642,40	8291,20
642,86	7892,00
643,31	8191,00
643,76	8650,00
644,22	8186,20
644,67	7982,40
645,12	8231,00
645,57	8046,80
646,03	8380,80
646,48	8415,80
646,93	8546,00
647,38	8705,00
647,84	8433,20
648,29	8517,80
648,74	7985,40
649,19	8926,00
649,65	8634,80
650,10	10333,20
650,55	8038,40
651,00	8073,00
651,46	8173,60
651,91	8564,40
652,36	8033,60
652,81	8323,40
653,27	8237,80
653,72	8054,60
654,17	8419,60
654,62	8503,40
655,07	8268,60
655,53	7933,00
655,98	8779,40
656,43	8080,00
656,88	8384,20
657,33	8658,40
657,79	8625,40
658,24	8039,60
658,69	8412,60
659,14	8021,40
659,59	10396,80
660,05	8171,60
660,50	8873,60
660,95	8337,80
661,40	8036,60
661,85	8318,40
662,30	8026,40
662,76	7790,60
663,21	8526,00
663,66	8235,00
664,11	8156,80
664,56	8319,60
665,01	7957,40
665,47	8419,40
665,92	7882,40
666,37	8436,60
666,82	8453,00
667,27	9539,20
667,72	8958,00
668,17	8082,40
668,62	8533,20
669,08	8050,40
669,53	9377,20
669,98	7728,40
670,43	8118,80
670,88	8886,20
671,33	8399,20
671,78	9083,60
672,23	9500,80
672,69	8407,40
673,14	8378,40
673,59	8906,40
674,04	9900,20
674,49	8466,20
674,94	8496,00
675,39	7866,20
675,84	7941,00
676,29	8393,80
676,74	8288,20
677,19	8282,40
677,64	8275,80
678,10	9614,40
678,55	8202,40
679,00	8225,20
679,45	8545,80
679,90	8169,40
680,35	8332,60
680,80	8387,80
681,25	7673,60
681,70	7666,60
682,15	8228,40
682,60	8344,80
683,05	8635,20
683,50	8636,40
683,95	8514,60
684,40	8918,60
684,85	8624,00
685,30	8405,40
685,75	8562,00
686,20	8290,80
686,65	7999,60
687,10	8451,00
687,55	8142,80
688,00	8435,00
688,45	8287,40
688,90	9697,00
689,35	8681,40
689,80	7821,00
690,25	8307,00
690,70	8340,80
691,15	7825,40
691,60	8320,00
692,05	7840,20
692,50	8351,00
692,95	8281,00
693,40	8597,80
693,85	8572,80
694,30	8372,20
694,75	8497,40
695,20	10541,40
695,65	8469,80
696,10	8450,40
696,55	9192,40
697,00	8342,00
697,45	8214,20
697,90	8555,40
698,35	8107,20
698,80	8728,20
699,24	8656,20
699,69	8203,80
700,14	8267,40
700,59	8690,20
701,04	8761,00
701,49	10282,40
701,94	7959,40
702,39	9045,40
702,84	8127,80
703,29	8210,80
703,74	8526,80
704,19	8318,40
704,63	8272,60
705,08	8924,00
705,53	8861,40
705,98	8885,80
706,43	7921,00
706,88	8660,80
707,33	8444,20
707,78	8297,00
708,22	8577,00
708,67	8779,60
709,12	8444,00
709,57	8212,20
710,02	8370,60
710,47	8411,40
710,92	8146,40
711,37	8669,20
711,81	8455,00
712,26	8412,40
712,71	8058,40
713,16	9344,40
713,61	8348,80
714,06	8425,20
714,50	9018,80
714,95	8885,20
715,40	8397,20
715,85	8502,20
716,30	8211,80
716,75	8222,60
717,19	7980,40
717,64	7874,20
718,09	8609,00
718,54	9182,20
718,99	8018,20
719,43	7926,80
719,88	8432,60
720,33	8357,80
720,78	8163,20
721,23	8544,40
721,67	8143,60
722,12	8645,60
722,57	8318,40
723,02	7948,20
723,47	7835,00
723,91	8430,80
724,36	7786,00
724,81	8597,40
725,26	7796,00
725,70	8324,80
726,15	8275,60
726,60	8394,20
727,05	9269,00
727,49	8031,40
727,94	8915,80
728,39	8555,80
728,84	8248,20
729,28	8935,20
729,73	8169,60
730,18	8749,20
730,63	8001,40
731,07	8400,20
731,52	8535,80
731,97	8445,80
732,41	8529,40
732,86	8059,60
733,31	8632,00
733,76	8468,80
734,20	8052,80
734,65	8689,00
735,10	8593,60
735,54	8407,40
735,99	9700,40
736,44	8023,40
736,89	8377,40
737,33	8642,80
737,78	8594,00
738,23	8357,00
738,67	8230,40
739,12	8344,40
739,57	7831,80
740,01	8847,80
740,46	8538,40
740,91	8048,00
741,35	8485,60
741,80	8603,20
742,25	8290,40
742,69	8357,00
743,14	7955,60
743,59	8021,80
744,03	8275,20
744,48	8754,20
744,92	8682,20
745,37	8530,40
745,82	8662,40
746,26	8984,60
746,71	7581,40
747,16	7957,60
747,60	7812,60
748,05	8472,20
748,49	8258,20
748,94	8153,80
749,39	8457,80
749,83	9636,80
750,28	8367,40
750,73	8176,40
751,17	7828,40
751,62	8121,20
752,06	8148,40
752,51	8184,00
752,95	9194,00
753,40	8067,40
753,85	8261,80
754,29	7796,40
754,74	8100,40
755,18	7852,80
755,63	8204,60
756,07	8303,20
756,52	8811,60
756,97	8149,60
757,41	8806,00
757,86	8286,20
758,30	8171,40
758,75	8155,00
759,19	8205,00
759,64	7855,20
760,08	8200,80
760,53	8449,40
760,98	8251,20
761,42	8564,80
761,87	8808,20
762,31	8118,80
762,76	7709,80
763,20	8118,00
763,65	8595,00
764,09	8193,00
764,54	7786,40
764,98	8045,60
765,43	8397,60
765,87	7840,80
766,32	7797,20
766,76	8025,20
767,21	8219,00
767,65	8257,00
768,10	8358,60
768,54	8512,80
768,99	8158,00
769,43	9151,00
769,88	7845,80
770,32	8132,00
770,77	7950,40
771,21	7799,00
771,65	8449,60
772,10	8279,00
772,54	8325,00
772,99	7690,80
773,43	8085,80
773,88	8083,20
774,32	7572,80
774,77	8271,80
775,21	7941,60
775,65	8269,00
776,10	8209,20
776,54	7833,40
776,99	8076,00
777,43	8053,00
777,88	8343,80
778,32	8479,20
778,76	8061,20
779,21	8295,40
779,65	9548,40
780,10	8823,20
780,54	8222,80
780,99	8626,00
781,43	8419,00
781,87	7865,80
782,32	8265,60
782,76	7792,40
783,20	8069,20
783,65	8456,80
784,09	8545,00
784,54	8169,80
784,98	8046,00
785,42	8083,80
785,87	7897,20
786,31	8442,80
786,75	8667,40
787,20	8747,60
787,64	7838,80
788,09	7937,20
788,53	8249,80
788,97	7896,40
789,42	8078,20
789,86	7933,60
790,30	8250,60
790,75	7838,00
791,19	7922,00
791,63	8627,00
792,08	8032,00
792,52	8188,20
792,96	7997,00
793,41	10180,40
793,85	8606,80
794,29	8218,60
794,74	8296,60
795,18	8232,40
795,62	7833,80
796,06	8333,40
796,51	8120,20
796,95	8206,20
797,39	7972,40
797,84	7772,40
798,28	8149,00
798,72	8579,00
799,16	8256,00
799,61	7825,60
800,05	8949,40
800,49	8321,00
800,94	7948,80
801,38	8387,20
801,82	8215,80
802,26	7872,00
802,71	8624,80
803,15	8986,00
803,59	8444,40
804,03	8299,80
804,48	8117,80
804,92	7911,80
805,36	8994,40
805,80	9223,00
806,25	9018,60
806,69	8496,00
807,13	9159,60
807,57	8105,00
808,01	8176,60
808,46	7809,60
808,90	8366,60
809,34	8219,60
809,78	8027,80
810,23	7784,40
810,67	8375,20
811,11	8767,60
811,55	9830,40
811,99	8032,20
812,44	7923,20
812,88	8491,40
813,32	9014,20
813,76	8533,20
814,20	8252,40
814,64	8565,00
815,09	8422,60
815,53	8325,00
815,97	7972,20
816,41	7854,80
816,85	7957,00
817,29	8506,00
817,74	8197,40
818,18	8687,60
818,62	7984,40
819,06	8511,60
819,50	8675,40
819,94	8065,40
820,39	8392,00
820,83	8022,80
821,27	8158,80
821,71	7872,80
822,15	8889,20
822,59	7830,60
823,03	8231,80
823,47	8224,40
823,92	7797,20
824,36	8251,00
824,80	8130,40
825,24	8332,00
825,68	8377,80
826,12	7801,40
826,56	8047,00
827,00	7505,80
827,44	8195,80
827,88	8540,40
828,33	8700,00
828,77	7942,80
829,21	8573,40
829,65	8303,00
830,09	7949,80
830,53	8914,60
830,97	7999,80
831,41	9277,00
831,85	8615,60
832,29	8481,00
832,73	7741,80
833,17	8190,20
833,61	8080,80
834,05	8815,20
834,49	8459,40
834,93	8101,80
835,37	8021,00
835,82	8616,80
836,26	8129,20
836,70	8346,60
837,14	8152,60
837,58	8570,40
838,02	7907,40
838,46	7960,40
838,90	8264,20
839,34	8139,20
839,78	8879,80
840,22	9194,80
840,66	8212,20
841,10	8792,80
841,54	7574,20
841,98	7923,20
842,42	7684,40
842,86	7996,80
843,30	8491,40
843,74	8217,40
844,18	8454,20
844,62	8127,80
845,06	7859,60
845,50	8423,20
845,94	8048,40
846,37	8481,00
846,81	7969,40
847,25	7890,00
847,69	8153,80
848,13	7853,80
848,57	8066,00
849,01	8017,80
849,45	8391,00
849,89	8731,80
850,33	8445,60
850,77	8046,20
851,21	8583,20
851,65	7850,40
852,09	8328,60
852,53	8678,40
852,97	8007,00
853,40	7972,60
853,84	8453,20
854,28	7725,00
854,72	8535,60
855,16	7705,00
855,60	7951,00
856,04	8614,20
856,48	8866,20
856,92	8179,00
857,36	8368,60
857,79	8219,40
858,23	7747,40
858,67	8763,00
859,11	7528,20
859,55	7908,80
859,99	7995,20
860,43	8051,80
860,87	8296,20
861,30	8427,80
861,74	7932,80
862,18	8109,80
862,62	8275,00
863,06	7945,80
863,50	7979,00
863,94	8440,20
864,37	7849,20
864,81	8139,00
865,25	8105,00
865,69	7717,20
866,13	8088,60
866,57	7633,00
867,00	8434,40
867,44	7840,60
867,88	8264,60
868,32	8068,60
868,76	7966,00
869,19	8266,60
869,63	8149,20
870,07	8812,80
870,51	9389,00
870,95	7695,60
871,38	8032,20
871,82	8154,00
872,26	7867,20
872,70	8249,80
873,14	8366,60
873,57	8134,20
874,01	8638,40
874,45	8489,20
874,89	8053,20
875,32	7783,20
875,76	8662,60
876,20	7549,80
876,64	8322,00
877,07	8090,00
877,51	8106,20
877,95	8183,00
878,39	8064,60
878,82	8247,80
879,26	8064,20
879,70	8913,40
880,14	7857,40
880,57	7718,00
881,01	7993,00
881,45	8177,80
881,89	8425,40
882,32	8063,20
882,76	8076,00
883,20	8027,20
883,63	8028,80
884,07	7765,60
884,51	8431,00
884,94	8164,20
885,38	8365,40
885,82	8520,20
886,26	8046,60
886,69	7868,00
887,13	8963,40
887,57	7807,00
888,00	7790,60
888,44	8125,20
888,88	8005,20
889,31	9566,00
889,75	7677,80
890,19	8472,20
890,62	7880,80
891,06	8389,60
891,50	8351,40
891,93	7623,40
892,37	7924,60
892,81	8024,00
893,24	7741,00
893,68	7980,40
894,11	8318,00
894,55	8045,20
894,99	8447,00
895,42	7978,80
895,86	7780,00
896,30	8175,80
896,73	8287,80
897,17	7824,80
897,60	7733,00
898,04	7807,80
898,48	8217,60
898,91	8629,20
899,35	7863,40
899,78	7809,60
900,22	7921,80
900,66	8530,00
901,09	8332,20
901,53	7945,20
901,96	8993,40
902,40	9112,00
902,84	7785,60
903,27	8000,00
903,71	8947,20
904,14	7815,80
904,58	8331,80
905,01	7897,40
905,45	8017,40
905,88	7750,60
906,32	8660,00
906,76	8160,00
907,19	8552,40
907,63	8309,00
908,06	8024,00
908,50	8410,20
908,93	8835,40
909,37	8022,00
909,80	7713,00
910,24	8272,40
910,67	8184,00
911,11	8020,60
911,54	7885,20
911,98	7959,80
912,41	8196,20
912,85	7990,60
913,28	8321,20
913,72	8286,00
914,15	8055,40
914,59	7670,80
915,02	7758,60
915,46	7983,60
915,89	7893,40
916,33	8505,40
916,76	7905,40
917,20	8591,40
917,63	7873,20
918,07	8524,40
918,50	7861,60
918,94	8061,40
919,37	8008,00
919,81	8354,60
920,24	8499,80
920,67	8132,00
921,11	8893,20
921,54	8324,20
921,98	7990,80
922,41	7729,80
922,85	7710,20
923,28	8216,40
923,72	8816,00
924,15	8360,80
924,58	7573,40
925,02	8364,60
925,45	7797,20
925,89	8465,00
926,32	9164,00
926,75	7997,40
927,19	8436,00
927,62	7689,80
928,06	9136,00
928,49	8083,60
928,92	7718,60
929,36	8520,40
929,79	8033,80
930,23	8267,20
930,66	8483,80
931,09	7884,40
931,53	8301,00
931,96	7496,40
932,39	8923,40
932,83	8566,00
933,26	9397,00
933,70	8085,00
934,13	8634,80
934,56	8542,00
935,00	8432,60
935,43	8317,20
935,86	7763,20
936,30	8084,20
936,73	7847,20
937,16	8274,00
937,60	7762,60
938,03	8413,60
938,46	7926,60
938,90	8032,60
939,33	8389,40
939,76	7778,20
940,19	8183,20
940,63	8577,20
941,06	9104,20
941,49	7912,00
941,93	8567,60
942,36	7840,20
942,79	7973,20
943,23	8417,80
943,66	7741,60
944,09	7656,20
944,52	8417,20
944,96	8380,00
945,39	8377,60
945,82	8186,60
946,26	8243,40
946,69	8249,80
947,12	8680,20
947,55	8136,80
947,99	8198,20
948,42	8384,80
948,85	7665,40
949,28	7738,00
949,72	7722,60
950,15	9359,20
950,58	8659,00
951,01	7996,00
951,45	7966,20
951,88	8331,40
952,31	7630,20
952,74	8517,40
953,17	7983,00
953,61	8984,00
954,04	7704,80
954,47	7911,00
954,90	7955,60
955,33	7867,40
955,77	7984,80
956,20	8296,00
956,63	7769,20
957,06	8315,60
957,49	9463,20
957,93	7685,00
958,36	8346,00
958,79	8177,40
959,22	7927,20
959,65	7881,40
960,08	7892,20
960,52	7454,40
960,95	7983,00
961,38	8382,00
961,81	8303,00
962,24	8536,40
962,67	8421,00
963,11	7855,40
963,54	8141,00
963,97	7923,80
964,40	8202,80
964,83	8052,40
965,26	7827,40
965,69	8509,00
966,13	7884,00
966,56	8059,60
966,99	8390,00
967,42	7865,60
967,85	7904,20
968,28	8623,00
968,71	10067,60
969,14	8473,20
969,57	8058,40
970,01	8281,00
970,44	7776,20
970,87	7917,20
971,30	8336,20
971,73	7902,60
972,16	8131,60
972,59	7690,00
973,02	7847,80
973,45	7994,40
973,88	8328,20
974,31	7951,00
974,74	8453,40
975,17	8203,80
975,61	7856,40
976,04	7883,20
976,47	7819,60
976,90	8212,80
977,33	7736,00
977,76	8424,60
978,19	8142,40
978,62	7995,20
979,05	8061,40
979,48	7990,00
979,91	8501,00
980,34	8339,80
980,77	7884,40
981,20	8262,80
981,63	8628,80
982,06	8076,60
982,49	8032,60
982,92	7958,00
983,35	7973,40
983,78	7845,60
984,21	8574,40
984,64	8343,80
985,07	7669,80
985,50	7494,20
985,93	7977,00
986,36	8383,00
986,79	7994,40
987,22	7874,20
987,65	8294,20
988,08	8093,80
988,51	8184,60
988,94	8030,80
989,37	8193,80
989,80	8091,20
990,23	7990,60
990,66	8240,80
991,09	8068,40
991,51	8245,80
991,94	8947,80
992,37	7970,20
992,80	7811,60
993,23	8068,00
993,66	7833,40
994,09	7932,00
994,52	8348,40
994,95	8428,20
995,38	8200,20
995,81	8210,60
996,24	7615,80
996,67	7706,20
997,09	7458,60
997,52	8588,80
997,95	8454,20
998,38	7885,20
998,81	8233,60
999,24	7755,40
999,67	8788,20
1000,10	8057,80
1000,53	8138,00
1000,95	8694,80
1001,38	7778,40
1001,81	8222,40
1002,24	8385,40
1002,67	8092,20
1003,10	8224,20
1003,53	8116,60
1003,95	8380,20
1004,38	7799,00
1004,81	8263,60
1005,24	8164,80
1005,67	8709,80
1006,10	8011,20
1006,52	7642,40
1006,95	8280,60
1007,38	8076,60
1007,81	7889,40
1008,24	7623,40
1008,67	8054,20
1009,09	7889,80
1009,52	9801,40
1009,95	8599,00
1010,38	8464,40
1010,81	8270,00
1011,23	8343,40
1011,66	8552,60
1012,09	8016,80
1012,52	8444,60
1012,95	8121,80
1013,37	8286,20
1013,80	8348,60
1014,23	7749,00
1014,66	8732,20
1015,08	7599,60
1015,51	8429,40
1015,94	7838,40
1016,37	8186,00
1016,80	7815,80
1017,22	8277,80
1017,65	8017,40
1018,08	19168,20
1018,51	7875,40
1018,93	7568,20
1019,36	9459,00
1019,79	8641,40
1020,21	8401,40
1020,64	8009,20
1021,07	8137,40
1021,50	8241,00
1021,92	8254,40
1022,35	8351,20
1022,78	8110,00
1023,21	9823,00
1023,63	8648,60
1024,06	8601,20
1024,49	8431,20
1024,91	8196,40
1025,34	8266,40
1025,77	8516,40
1026,19	7839,40
1026,62	7813,60
1027,05	9310,40
1027,47	8475,80
1027,90	8321,80
1028,33	8270,60
1028,75	8247,20
1029,18	7944,00
1029,61	9201,00
1030,03	8236,80
1030,46	8150,00
1030,89	8237,20
1031,31	8824,40
1031,74	7715,40
1032,17	8232,00
1032,59	8483,80
1033,02	7953,80
1033,45	8574,40
1033,87	7848,40
1034,30	7912,00
1034,73	8285,00
1035,15	8584,00
1035,58	7977,60
1036,00	8893,40
1036,43	7945,60
1036,86	8027,40
1037,28	8257,00
1037,71	7701,80
1038,13	8522,60
1038,56	8555,00
1038,99	8476,40
1039,41	8634,00
1039,84	8874,80
1040,26	8111,20
1040,69	8127,20
1041,11	8316,20
1041,54	7997,20
1041,97	8798,00
1042,39	8700,40
1042,82	8396,00
1043,24	8627,60
1043,67	8152,60
1044,09	8550,40
1044,52	7870,20
1044,95	8106,60
1045,37	8006,00
1045,80	7790,80
1046,22	8208,80
1046,65	8418,20
1047,07	7882,00
1047,50	8359,40
1047,92	8536,80
1048,35	7784,20
1048,77	8635,20
1049,20	8458,40
1049,62	8548,40
1050,05	8113,00
1050,47	8097,80
1050,90	8386,20
1051,32	8579,20
1051,75	8782,20
1052,17	8695,60
1052,60	8235,00
1053,02	8421,60
1053,45	7502,00
1053,87	8204,60
1054,30	7598,80
1054,72	8113,20
1055,15	7932,40
1055,57	8315,60
1056,00	8417,80
1056,42	9046,80
1056,85	8657,60
1057,27	8670,20
1057,70	8212,60
1058,12	10023,00
1058,54	7870,60
1058,97	8423,20
1059,39	8516,80
1059,82	8078,40
1060,24	8111,60
1060,67	7951,40
1061,09	8621,00
1061,51	8277,80
1061,94	8055,60
1062,36	8538,20
1062,79	8786,20
1063,21	8332,20
1063,64	8133,00
1064,06	7938,80
1064,48	8529,40
1064,91	8591,20
1065,33	8034,00
1065,76	7900,00
1066,18	7686,40
1066,60	8532,60
1067,03	8180,40
1067,45	8150,80
1067,87	8285,40
1068,30	7992,60
1068,72	9006,40
1069,15	8182,20
1069,57	8056,00
1069,99	7686,40
1070,42	8601,80
1070,84	8646,00
1071,26	8609,00
1071,69	8089,60
1072,11	8510,20
1072,53	8025,00
1072,96	7833,20
1073,38	7685,00
1073,80	8518,00
1074,23	8020,00
1074,65	7731,60
1075,07	7978,20
1075,50	8036,40
1075,92	8247,20
1076,34	7944,60
1076,77	7897,80
1077,19	8115,80
1077,61	8576,40
1078,04	8069,00
1078,46	8467,40
1078,88	8830,80
1079,30	7562,00
1079,73	8288,20
1080,15	7980,60
1080,57	8135,60
1081,00	8372,80
1081,42	8180,20
1081,84	8019,40
1082,26	8389,60
1082,69	8146,80
1083,11	8086,80
1083,53	8158,00
1083,95	8201,60
1084,38	8611,60
1084,80	8162,00
1085,22	8101,60
1085,64	8655,80
1086,07	7830,80
1086,49	7972,20
1086,91	8310,20
1087,33	7676,80
1087,76	8440,40
1088,18	18742,00
1088,60	8303,00
1089,02	7932,80
1089,45	8004,00
1089,87	8067,00
1090,29	8602,40
1090,71	8150,60
1091,13	7805,80
1091,56	8047,20
1091,98	8056,20
1092,40	7880,20
1092,82	8092,60
1093,24	7922,40
1093,66	8195,60
1094,09	8028,40
1094,51	8196,40
1094,93	8024,60
1095,35	8175,80
1095,77	7951,20
1096,19	8170,60
1096,62	8308,20
1097,04	7758,00
1097,46	8142,20
1097,88	7916,20
1098,30	8385,80
1098,72	8360,00
1099,15	8348,60
1099,57	8106,80
1099,99	8082,20
1100,41	7844,20
1100,83	8001,00
1101,25	7974,80
1101,67	8134,80
1102,09	7682,40
1102,52	7892,40
1102,94	8038,40
1103,36	8102,60
1103,78	8247,40
1104,20	7884,20
1104,62	8869,20
1105,04	7381,80
1105,46	8184,00
1105,88	7957,20
1106,30	7884,80
1106,73	8094,80
1107,15	7376,40
1107,57	7591,40
1107,99	8438,20
1108,41	7602,40
1108,83	8283,40
1109,25	8204,80
1109,67	8237,40
1110,09	7497,60
1110,51	7869,80
1110,93	7521,40
1111,35	7887,20
1111,77	7509,60
1112,19	7618,80
1112,61	7475,80
1113,03	7814,20
1113,45	7618,40
1113,87	7587,60
1114,29	7925,20
1114,71	8070,40
1115,13	7676,00
1115,55	7824,20
1115,98	7715,20
1116,40	8056,20
1116,82	7889,80
1117,24	7908,40
1117,66	7573,20
1118,08	2064,40
1118,50	2193,00
1118,91	2184,40
1119,33	2183,20
>>>>>End Processed Spectral Data<<<<<
