SpectraSuite Data File
++++++++++++++++++++++++++++++++++++
Date: Mon Aug 22 09:42:48 EEST 2011
User: OO Maya
Dark Spectrum Present: No
Reference Spectrum Present: No
Number of Sampled Component Spectra: 1
Spectrometers: MAYP11278
Integration Time (usec): 3000000 (MAYP11278)
Spectra Averaged: 2 (MAYP11278)
Boxcar Smoothing: 0 (MAYP11278)
Correct for Electrical Dark: Yes (MAYP11278)
Strobe/Lamp Enabled: No (MAYP11278)
Correct for Detector Non-linearity: No (MAYP11278)
Correct for Stray Light: No (MAYP11278)
Number of Pixels in Processed Spectrum: 2068
>>>>>Begin Processed Spectral Data<<<<<
200,00	6146,00
200,47	-2040,10
200,95	-2039,10
201,42	-2043,10
201,89	1386,90
202,37	1462,40
202,84	1412,40
203,31	1396,40
203,79	1636,90
204,26	1341,40
204,73	1208,90
205,20	1139,40
205,68	1337,90
206,15	1269,40
206,62	1487,40
207,10	1241,40
207,57	1617,40
208,04	1321,90
208,51	1358,90
208,99	2091,90
209,46	1417,90
209,93	1214,90
210,41	1273,90
210,88	1226,90
211,35	1417,40
211,82	1557,90
212,30	1318,90
212,77	1447,90
213,24	1605,90
213,71	1628,90
214,19	1562,40
214,66	1177,90
215,13	1473,90
215,60	1243,40
216,08	1631,90
216,55	1737,90
217,02	1289,90
217,49	1270,40
217,96	1780,90
218,44	1319,90
218,91	1526,90
219,38	2151,40
219,85	1488,90
220,33	1601,40
220,80	1380,90
221,27	1647,90
221,74	1591,40
222,21	1421,90
222,69	1399,40
223,16	1539,40
223,63	1472,90
224,10	1272,40
224,57	1920,90
225,04	1608,90
225,52	1292,40
225,99	1936,90
226,46	1520,40
226,93	1828,40
227,40	1563,90
227,87	1631,40
228,35	1604,90
228,82	1597,90
229,29	1408,40
229,76	1423,90
230,23	1801,90
230,70	1187,40
231,18	1319,40
231,65	1372,40
232,12	1467,90
232,59	1790,90
233,06	1356,90
233,53	1700,40
234,00	1338,40
234,48	1678,90
234,95	1381,40
235,42	1719,40
235,89	1458,40
236,36	1370,90
236,83	1311,40
237,30	1481,90
237,77	1374,90
238,24	1537,40
238,72	1724,90
239,19	1475,90
239,66	1580,40
240,13	1615,40
240,60	1628,40
241,07	1469,90
241,54	1500,40
242,01	1387,40
242,48	1702,90
242,95	1713,40
243,42	1549,90
243,90	1577,90
244,37	1380,40
244,84	1560,40
245,31	1552,90
245,78	2367,40
246,25	1569,40
246,72	1384,90
247,19	1347,90
247,66	1267,90
248,13	1694,40
248,60	2031,90
249,07	1402,90
249,54	1564,90
250,01	1583,40
250,48	1558,40
250,95	1481,90
251,42	1240,90
251,89	1682,40
252,36	1908,90
252,83	1583,90
253,30	1498,90
253,77	1783,90
254,24	1760,90
254,71	1255,90
255,18	1341,40
255,65	1778,40
256,12	1924,40
256,59	1423,90
257,06	1818,90
257,53	1779,40
258,00	1394,40
258,47	1504,90
258,94	1538,40
259,41	1583,90
259,88	1591,90
260,35	1185,90
260,82	1607,40
261,29	1728,40
261,76	1592,90
262,23	1903,40
262,70	1532,40
263,17	1984,90
263,64	1847,90
264,11	1451,40
264,58	1799,90
265,05	1615,40
265,52	1455,40
265,99	1646,40
266,46	1654,40
266,93	1772,90
267,40	1448,90
267,87	1667,90
268,34	1617,40
268,81	1782,40
269,28	2379,90
269,74	1622,40
270,21	1457,90
270,68	1595,90
271,15	1778,40
271,62	1951,90
272,09	1489,90
272,56	1325,90
273,03	1803,40
273,50	1434,40
273,97	1611,90
274,44	1537,90
274,90	1322,90
275,37	1778,40
275,84	1834,40
276,31	1448,90
276,78	1631,90
277,25	1649,90
277,72	1781,90
278,19	1453,40
278,66	1536,40
279,12	1541,40
279,59	1649,40
280,06	1155,90
280,53	1355,40
281,00	1382,90
281,47	1697,90
281,94	1867,40
282,40	1458,40
282,87	1598,90
283,34	1281,40
283,81	1322,40
284,28	1165,40
284,75	1520,40
285,21	2527,40
285,68	1724,40
286,15	1769,40
286,62	1405,90
287,09	1528,90
287,56	1696,90
288,02	1694,40
288,49	1335,40
288,96	1512,90
289,43	1311,90
289,90	2612,40
290,36	1480,40
290,83	1412,90
291,30	2540,90
291,77	1776,90
292,24	2315,40
292,70	1425,90
293,17	1775,90
293,64	1495,40
294,11	1505,40
294,58	1635,90
295,04	1372,90
295,51	1355,90
295,98	1721,40
296,45	1474,40
296,91	1633,40
297,38	1606,90
297,85	1241,90
298,32	1646,90
298,79	1931,40
299,25	1476,90
299,72	1752,40
300,19	1125,40
300,66	1922,90
301,12	1384,40
301,59	1570,40
302,06	1444,90
302,52	1729,90
302,99	2132,90
303,46	1413,90
303,93	1857,90
304,39	1444,90
304,86	1723,40
305,33	1658,40
305,80	1335,90
306,26	1540,40
306,73	1622,40
307,20	2063,40
307,66	1951,90
308,13	1705,90
308,60	1650,90
309,07	1680,90
309,53	1498,40
310,00	1991,40
310,47	1547,90
310,93	1741,40
311,40	1469,40
311,87	1785,40
312,33	1831,90
312,80	1812,90
313,27	1381,40
313,73	1810,90
314,20	1827,90
314,67	1436,40
315,13	1530,90
315,60	1391,90
316,07	1577,40
316,53	1639,90
317,00	1601,40
317,47	1711,40
317,93	1457,40
318,40	1514,90
318,87	1622,40
319,33	1470,90
319,80	1804,90
320,26	1832,40
320,73	1676,90
321,20	1679,40
321,66	1661,40
322,13	1461,40
322,60	1848,40
323,06	1588,40
323,53	2040,90
323,99	1432,40
324,46	1476,90
324,93	1668,90
325,39	1446,40
325,86	1454,40
326,32	1811,40
326,79	1705,90
327,26	1624,40
327,72	1726,90
328,19	1622,40
328,65	2339,90
329,12	1627,40
329,59	1511,40
330,05	1327,40
330,52	1653,90
330,98	2040,40
331,45	1775,90
331,91	1512,40
332,38	1245,90
332,85	1369,90
333,31	2001,90
333,78	1538,90
334,24	1698,40
334,71	1369,90
335,17	1661,40
335,64	1577,40
336,10	1500,90
336,57	1487,90
337,03	1477,40
337,50	1675,90
337,96	1720,90
338,43	1732,90
338,90	1634,90
339,36	1482,90
339,83	1525,90
340,29	1534,90
340,76	1363,40
341,22	1754,40
341,69	1637,90
342,15	2048,90
342,62	1430,40
343,08	2099,90
343,55	1755,40
344,01	1654,40
344,48	1903,90
344,94	1678,90
345,41	1763,40
345,87	2540,90
346,34	1289,90
346,80	1530,90
347,27	1433,90
347,73	1700,90
348,19	1476,90
348,66	1520,40
349,12	2009,90
349,59	1765,90
350,05	1338,40
350,52	1435,90
350,98	1402,40
351,45	1683,40
351,91	1817,90
352,38	1490,40
352,84	1665,90
353,30	1725,90
353,77	1628,90
354,23	1569,40
354,70	1584,40
355,16	1415,90
355,63	1562,40
356,09	1733,40
356,55	1478,90
357,02	1438,90
357,48	1974,90
357,95	1455,90
358,41	1859,90
358,87	1643,40
359,34	1319,40
359,80	1601,90
360,27	1750,90
360,73	1619,90
361,19	1421,90
361,66	1685,40
362,12	2023,90
362,59	1672,40
363,05	1490,90
363,51	1619,40
363,98	1780,40
364,44	1662,40
364,91	1747,40
365,37	1676,40
365,83	2035,90
366,30	1434,90
366,76	1997,90
367,22	1399,90
367,69	2206,40
368,15	1792,90
368,61	1274,40
369,08	1401,40
369,54	1456,90
370,00	1469,90
370,47	1799,90
370,93	1925,40
371,39	1483,40
371,86	1625,90
372,32	1562,90
372,78	1500,40
373,25	1600,90
373,71	2189,90
374,17	1781,90
374,64	1457,40
375,10	1698,40
375,56	1457,40
376,03	1306,90
376,49	1652,90
376,95	1547,40
377,42	1610,40
377,88	1236,40
378,34	1347,40
378,80	1805,40
379,27	1324,90
379,73	1788,40
380,19	1654,40
380,66	1489,40
381,12	1498,40
381,58	1728,40
382,04	1480,90
382,51	1212,40
382,97	1484,40
383,43	1613,40
383,89	1318,90
384,36	1366,90
384,82	1646,40
385,28	1170,90
385,74	1873,90
386,21	1469,40
386,67	1278,40
387,13	1281,90
387,59	1617,40
388,06	1546,40
388,52	1535,40
388,98	1554,40
389,44	1569,40
389,91	1713,40
390,37	1883,40
390,83	1547,90
391,29	1944,90
391,75	1960,90
392,22	1268,40
392,68	1663,40
393,14	1485,90
393,60	1838,90
394,06	1647,40
394,53	2899,40
394,99	1612,40
395,45	1464,40
395,91	1506,40
396,37	2025,40
396,84	1365,90
397,30	1280,40
397,76	1796,40
398,22	1653,90
398,68	1901,90
399,14	1428,90
399,61	1793,90
400,07	1634,90
400,53	1719,90
400,99	1703,90
401,45	1627,90
401,91	1640,40
402,38	1509,40
402,84	1531,40
403,30	2229,90
403,76	1589,40
404,22	1862,40
404,68	1364,40
405,14	1742,90
405,61	2849,90
406,07	1292,90
406,53	1726,40
406,99	1801,40
407,45	1388,90
407,91	1557,40
408,37	1446,40
408,83	1350,40
409,29	1824,90
409,76	1301,40
410,22	1564,40
410,68	1468,40
411,14	1709,90
411,60	1674,90
412,06	1565,90
412,52	1381,90
412,98	1936,40
413,44	1502,90
413,90	1891,40
414,36	2047,40
414,83	1815,90
415,29	1376,90
415,75	1773,40
416,21	1700,40
416,67	2074,90
417,13	1564,90
417,59	1616,40
418,05	1736,40
418,51	1311,40
418,97	1878,40
419,43	1357,40
419,89	1896,90
420,35	1353,90
420,81	1920,40
421,27	1374,40
421,73	1214,90
422,19	1671,90
422,65	1459,40
423,11	1672,90
423,57	1739,40
424,03	1951,40
424,49	1520,90
424,96	2020,40
425,42	1688,90
425,88	1651,90
426,34	2094,40
426,80	1662,90
427,26	1554,90
427,72	1617,90
428,18	1588,40
428,64	1788,90
429,10	1402,40
429,56	1776,40
430,02	1333,40
430,47	1541,40
430,93	1419,40
431,39	1704,40
431,85	1442,90
432,31	1604,40
432,77	1693,40
433,23	1865,90
433,69	1595,40
434,15	1817,90
434,61	1577,40
435,07	1951,90
435,53	1496,40
435,99	1904,40
436,45	1764,40
436,91	1832,40
437,37	1339,90
437,83	1876,90
438,29	1731,40
438,75	1626,40
439,21	1642,90
439,67	2543,40
440,12	1333,90
440,58	1518,90
441,04	1970,90
441,50	1824,40
441,96	1532,90
442,42	1481,90
442,88	1624,90
443,34	1557,90
443,80	1736,90
444,26	1344,40
444,72	1724,90
445,17	1564,90
445,63	1278,40
446,09	1854,90
446,55	1659,90
447,01	1661,90
447,47	1485,90
447,93	1522,90
448,39	2656,90
448,85	1738,40
449,30	1830,40
449,76	1908,90
450,22	1417,90
450,68	1529,40
451,14	2317,90
451,60	1417,40
452,06	1635,40
452,51	1710,40
452,97	1341,40
453,43	2019,90
453,89	1755,40
454,35	1599,90
454,81	1646,90
455,26	1685,40
455,72	1569,90
456,18	1589,90
456,64	1490,40
457,10	1456,40
457,56	1712,90
458,01	1694,90
458,47	1523,40
458,93	1401,40
459,39	1429,90
459,85	1473,40
460,30	1647,90
460,76	1779,40
461,22	1405,40
461,68	1856,40
462,14	1597,40
462,59	1550,40
463,05	1642,90
463,51	1769,40
463,97	1577,40
464,43	1623,90
464,88	1811,90
465,34	1498,90
465,80	1914,40
466,26	1578,90
466,71	1564,40
467,17	1391,40
467,63	1655,40
468,09	1555,90
468,54	1624,40
469,00	1471,90
469,46	1367,90
469,92	1910,40
470,37	1833,40
470,83	1397,40
471,29	1322,90
471,75	1950,90
472,20	1500,90
472,66	1677,40
473,12	1650,90
473,58	1390,90
474,03	1512,90
474,49	1835,40
474,95	1591,90
475,40	1728,40
475,86	1736,90
476,32	1574,40
476,78	1648,90
477,23	1691,40
477,69	1573,90
478,15	1405,90
478,60	1668,90
479,06	1635,40
479,52	1501,40
479,97	1564,90
480,43	1435,40
480,89	1488,90
481,34	1567,90
481,80	1941,40
482,26	1572,90
482,71	1421,40
483,17	1557,90
483,63	1385,40
484,08	1684,90
484,54	1567,90
485,00	1725,90
485,45	1541,40
485,91	1635,40
486,37	2040,90
486,82	1670,90
487,28	1873,90
487,74	1435,40
488,19	2085,40
488,65	1820,90
489,10	1563,40
489,56	1511,40
490,02	1576,90
490,47	1647,40
490,93	1353,90
491,39	1523,90
491,84	1315,90
492,30	1571,40
492,75	2045,40
493,21	1671,40
493,67	1567,40
494,12	1267,40
494,58	1468,90
495,03	1258,40
495,49	1683,40
495,95	1313,90
496,40	1314,40
496,86	1475,40
497,31	1653,40
497,77	1566,40
498,23	1830,40
498,68	1314,90
499,14	1667,40
499,59	1296,90
500,05	1492,90
500,50	1187,90
500,96	1872,90
501,41	1627,90
501,87	1604,90
502,33	1347,40
502,78	1541,90
503,24	1444,40
503,69	1375,40
504,15	1721,40
504,60	1489,90
505,06	1525,40
505,51	2067,90
505,97	1918,90
506,42	1467,90
506,88	1645,90
507,33	1474,40
507,79	2211,40
508,24	1616,40
508,70	1458,90
509,15	1548,90
509,61	1541,90
510,06	1739,40
510,52	1553,40
510,97	1607,40
511,43	1544,40
511,88	1662,40
512,34	1453,40
512,79	1635,40
513,25	1664,40
513,70	1378,90
514,16	1530,90
514,61	1848,40
515,07	1568,40
515,52	1704,90
515,98	1684,40
516,43	1381,40
516,89	1352,40
517,34	1275,90
517,80	1464,90
518,25	1574,40
518,70	1404,90
519,16	1945,40
519,61	1892,40
520,07	1342,40
520,52	1226,40
520,98	1392,40
521,43	1720,90
521,89	1193,40
522,34	1780,90
522,79	1917,90
523,25	1224,90
523,70	1626,40
524,16	1844,40
524,61	1806,40
525,06	2309,40
525,52	1716,40
525,97	1569,40
526,43	2577,90
526,88	1524,40
527,33	1467,90
527,79	1356,90
528,24	1332,40
528,70	1667,90
529,15	1742,90
529,60	1783,40
530,06	1563,40
530,51	1291,40
530,97	2024,90
531,42	1781,40
531,87	1488,90
532,33	2050,90
532,78	1680,90
533,23	1766,40
533,69	1941,40
534,14	1673,90
534,59	1599,40
535,05	1539,90
535,50	1532,90
535,96	1798,90
536,41	1757,40
536,86	1534,40
537,32	1343,40
537,77	1751,90
538,22	1735,90
538,68	1324,90
539,13	1828,90
539,58	1604,40
540,03	1525,90
540,49	1589,40
540,94	1707,90
541,39	1548,90
541,85	1317,90
542,30	1574,40
542,75	1474,90
543,21	1633,40
543,66	1474,40
544,11	1692,90
544,57	1359,40
545,02	1745,40
545,47	1545,90
545,92	1548,40
546,38	1980,90
546,83	1690,40
547,28	3025,90
547,73	1251,90
548,19	2061,90
548,64	1630,40
549,09	1356,40
549,55	1699,40
550,00	1653,40
550,45	1454,40
550,90	2393,40
551,36	1339,40
551,81	2125,40
552,26	1807,90
552,71	1625,90
553,17	1583,40
553,62	1825,90
554,07	1663,90
554,52	1699,90
554,97	1818,90
555,43	1654,40
555,88	1633,40
556,33	1506,90
556,78	1445,40
557,24	2182,90
557,69	1518,40
558,14	1350,90
558,59	1672,90
559,04	1565,40
559,50	2103,90
559,95	1699,40
560,40	1426,40
560,85	1705,90
561,30	1504,40
561,76	1471,90
562,21	1664,40
562,66	1622,90
563,11	2101,40
563,56	1632,90
564,01	1915,40
564,47	1249,40
564,92	1657,90
565,37	2164,40
565,82	1507,40
566,27	1587,90
566,72	1434,40
567,18	1475,90
567,63	1408,90
568,08	1603,40
568,53	1538,90
568,98	1574,40
569,43	1479,40
569,88	1455,90
570,34	1604,40
570,79	1845,40
571,24	1446,90
571,69	1637,90
572,14	1471,40
572,59	1531,90
573,04	1631,90
573,49	1945,90
573,94	1573,40
574,40	1405,90
574,85	1623,90
575,30	1907,40
575,75	1471,40
576,20	1581,40
576,65	1799,90
577,10	1613,90
577,55	1588,90
578,00	1772,90
578,45	1785,90
578,91	1575,90
579,36	1684,90
579,81	1750,40
580,26	1444,90
580,71	1459,40
581,16	1622,90
581,61	1922,90
582,06	1789,90
582,51	1313,90
582,96	1691,90
583,41	1224,40
583,86	1911,90
584,31	1531,90
584,76	1476,90
585,21	1299,90
585,66	1952,40
586,11	1564,40
586,56	1450,40
587,01	1667,40
587,46	1688,90
587,92	1552,90
588,37	1574,90
588,82	1663,90
589,27	1585,40
589,72	1343,90
590,17	1573,90
590,62	1664,40
591,07	1489,90
591,52	1699,90
591,97	1469,90
592,42	2281,90
592,87	1460,40
593,32	1486,90
593,77	1504,90
594,22	1550,40
594,67	1807,40
595,12	1382,40
595,56	1711,40
596,01	1504,90
596,46	1395,40
596,91	1752,90
597,36	1758,40
597,81	1455,40
598,26	1286,40
598,71	1975,90
599,16	1453,40
599,61	1689,40
600,06	1571,90
600,51	1805,90
600,96	1624,90
601,41	1585,90
601,86	1966,90
602,31	1498,40
602,76	1425,90
603,21	1991,90
603,66	1836,90
604,11	1880,40
604,55	1712,90
605,00	1272,90
605,45	1644,90
605,90	1922,90
606,35	1432,90
606,80	1689,40
607,25	1874,90
607,70	1654,40
608,15	1791,90
608,60	1277,90
609,04	2370,90
609,49	1494,40
609,94	1635,90
610,39	1294,40
610,84	1234,40
611,29	1705,40
611,74	1541,90
612,19	1767,40
612,64	1669,90
613,08	1263,40
613,53	1602,40
613,98	1504,40
614,43	1639,40
614,88	1722,90
615,33	1631,90
615,78	2298,90
616,22	1779,90
616,67	1522,40
617,12	1457,90
617,57	1583,40
618,02	1291,40
618,47	2113,40
618,91	1713,90
619,36	1583,40
619,81	2441,90
620,26	1317,90
620,71	1270,90
621,16	1258,90
621,60	1290,90
622,05	1583,90
622,50	1573,40
622,95	1367,40
623,40	1508,40
623,84	1613,40
624,29	1792,90
624,74	1472,90
625,19	1491,40
625,64	1561,90
626,08	1817,40
626,53	1518,90
626,98	1801,40
627,43	1877,40
627,87	1560,40
628,32	1783,40
628,77	1900,90
629,22	1844,40
629,66	1472,40
630,11	1435,40
630,56	1922,90
631,01	1372,40
631,46	1547,90
631,90	1684,90
632,35	1414,90
632,80	1520,40
633,25	1668,90
633,69	1386,90
634,14	1750,40
634,59	1746,90
635,03	1181,40
635,48	1589,40
635,93	1613,40
636,38	1469,90
636,82	1715,40
637,27	1528,90
637,72	1796,90
638,16	1666,90
638,61	1917,90
639,06	1416,90
639,51	1434,40
639,95	1425,40
640,40	1442,90
640,85	1330,90
641,29	1495,40
641,74	1413,90
642,19	1274,90
642,63	1515,40
643,08	1500,40
643,53	1396,90
643,97	1743,90
644,42	1775,40
644,87	1467,90
645,31	1584,90
645,76	1346,40
646,21	1235,90
646,65	1664,40
647,10	1817,90
647,55	1221,40
647,99	1445,90
648,44	1482,90
648,89	1226,90
649,33	1430,90
649,78	1744,90
650,23	1403,40
650,67	1326,40
651,12	1468,90
651,56	1330,40
652,01	1586,40
652,46	1603,40
652,90	1633,90
653,35	1740,40
653,80	1628,40
654,24	1666,40
654,69	1292,90
655,13	1876,40
655,58	1680,90
656,03	2663,40
656,47	1350,90
656,92	1378,90
657,36	1424,90
657,81	1570,90
658,26	1346,90
658,70	1498,40
659,15	1456,40
659,59	1418,40
660,04	1633,40
660,48	1653,40
660,93	1467,90
661,38	1293,90
661,82	1721,40
662,27	1361,40
662,71	1572,90
663,16	1661,40
663,60	1801,40
664,05	1341,40
664,49	1551,90
664,94	1341,90
665,38	2745,40
665,83	1439,40
666,28	1820,40
666,72	1476,40
667,17	1393,40
667,61	1546,90
668,06	1335,90
668,50	1149,40
668,95	1662,90
669,39	1405,40
669,84	1474,40
670,28	1509,90
670,73	1274,40
671,17	1589,40
671,62	1368,90
672,06	1566,40
672,51	1644,90
672,95	2229,40
673,40	1953,90
673,84	1350,90
674,29	1628,90
674,73	1369,40
675,18	2162,90
675,62	1159,90
676,07	1334,90
676,51	1815,40
676,95	1526,40
677,40	1960,90
677,84	2185,90
678,29	1576,40
678,73	1578,40
679,18	1856,40
679,62	2479,40
680,07	1620,90
680,51	1576,40
680,96	1184,90
681,40	1307,90
681,84	1587,90
682,29	1484,90
682,73	1547,90
683,18	1396,90
683,62	2353,40
684,07	1329,90
684,51	1439,90
684,95	1614,90
685,40	1423,90
685,84	1503,90
686,29	1493,40
686,73	1098,90
687,17	1096,90
687,62	1458,40
688,06	1557,40
688,51	1738,90
688,95	1667,40
689,39	1620,40
689,84	1914,90
690,28	1668,90
690,73	1588,90
691,17	1624,90
691,61	1485,90
692,06	1301,40
692,50	1563,90
692,94	1389,40
693,39	1530,40
693,83	1448,40
694,27	2338,90
694,72	1709,40
695,16	1215,40
695,60	1466,40
696,05	1463,90
696,49	1248,90
696,94	1552,90
697,38	1236,40
697,82	1527,90
698,27	1468,90
698,71	1680,40
699,15	1680,40
699,59	1569,90
700,04	1554,90
700,48	2800,90
700,92	1570,90
701,37	1597,90
701,81	2106,90
702,25	1537,90
702,70	1457,40
703,14	1616,40
703,58	1384,90
704,03	1716,40
704,47	1725,90
704,91	1437,90
705,35	1399,40
705,80	1684,90
706,24	1760,90
706,68	2687,40
707,13	1246,90
707,57	1981,90
708,01	1387,40
708,45	1361,40
708,90	1592,90
709,34	1482,40
709,78	1448,40
710,22	1886,90
710,67	1860,40
711,11	1767,40
711,55	1292,90
711,99	1738,90
712,44	1550,40
712,88	1496,40
713,32	1663,90
713,76	1752,90
714,21	1582,90
714,65	1431,40
715,09	1562,90
715,53	1537,40
715,97	1341,90
716,42	1686,40
716,86	1558,40
717,30	1577,40
717,74	1352,90
718,18	2125,40
718,63	1488,40
719,07	1547,90
719,51	1901,90
719,95	1774,90
720,39	1485,40
720,84	1529,40
721,28	1438,40
721,72	1485,90
722,16	1267,40
722,60	1182,40
723,04	1670,40
723,49	2045,40
723,93	1343,90
724,37	1251,40
724,81	1552,90
725,25	1441,40
725,69	1407,90
726,14	1591,90
726,58	1440,40
727,02	1615,90
727,46	1446,90
727,90	1246,40
728,34	1249,40
728,78	1603,40
729,23	1208,40
729,67	1650,40
730,11	1131,90
730,55	1448,90
730,99	1429,40
731,43	1543,90
731,87	2088,90
732,31	1301,90
732,76	1864,40
733,20	1600,90
733,64	1476,40
734,08	1836,40
734,52	1384,40
734,96	1785,40
735,40	1256,40
735,84	1495,90
736,28	1634,40
736,72	1579,40
737,16	1570,90
737,61	1348,90
738,05	1693,40
738,49	1631,40
738,93	1363,40
739,37	1710,40
739,81	1709,90
740,25	1571,90
740,69	2318,90
741,13	1332,40
741,57	1557,40
742,01	1738,90
742,45	1726,40
742,89	1555,40
743,33	1473,40
743,77	1564,90
744,21	1247,90
744,65	1830,40
745,09	1614,40
745,53	1359,90
745,98	1700,90
746,42	1688,90
746,86	1509,90
747,30	1524,90
747,74	1339,40
748,18	1299,40
748,62	1484,40
749,06	1833,90
749,50	1818,40
749,94	1528,90
750,38	1813,90
750,82	1963,90
751,26	1091,40
751,70	1291,40
752,14	1216,90
752,58	1667,90
753,02	1469,40
753,45	1426,90
753,89	1666,90
754,33	2361,90
754,77	1558,40
755,21	1507,40
755,65	1226,40
756,09	1450,90
756,53	1418,90
756,97	1458,90
757,41	2091,90
757,85	1377,90
758,29	1461,40
758,73	1200,90
759,17	1383,40
759,61	1342,40
760,05	1428,40
760,49	1533,40
760,93	1834,90
761,37	1432,90
761,80	1856,40
762,24	1487,40
762,68	1426,90
763,12	1487,90
763,56	1467,90
764,00	1294,90
764,44	1407,40
764,88	1629,40
765,32	1479,90
765,76	1627,40
766,20	1883,90
766,63	1447,40
767,07	1256,40
767,51	1465,40
767,95	1722,90
768,39	1532,90
768,83	1221,90
769,27	1379,90
769,71	1616,40
770,14	1334,40
770,58	1305,90
771,02	1333,40
771,46	1478,90
771,90	1556,40
772,34	1583,40
772,78	1755,40
773,21	1508,90
773,65	2061,90
774,09	1298,40
774,53	1458,90
774,97	1363,90
775,41	1262,90
775,84	1598,90
776,28	1568,40
776,72	1637,40
777,16	1224,90
777,60	1403,90
778,04	1408,40
778,47	1090,90
778,91	1491,90
779,35	1300,90
779,79	1593,90
780,23	1537,90
780,66	1272,40
781,10	1441,90
781,54	1473,40
781,98	1664,40
782,42	1687,90
782,85	1418,90
783,29	1545,40
783,73	2316,40
784,17	1891,90
784,61	1546,40
785,04	1780,90
785,48	1627,40
785,92	1339,40
786,36	1581,90
786,79	1292,40
787,23	1453,40
787,67	1742,90
788,11	1777,40
788,54	1527,40
788,98	1391,40
789,42	1462,40
789,86	1295,90
790,29	1712,90
790,73	1734,90
791,17	1829,90
791,60	1284,90
792,04	1350,90
792,48	1616,40
792,92	1333,90
793,35	1441,40
793,79	1399,90
794,23	1513,90
794,67	1296,40
795,10	1396,40
795,54	1782,40
795,98	1404,40
796,41	1507,40
796,85	1372,40
797,29	2782,90
797,72	1827,40
798,16	1544,90
798,60	1643,40
799,03	1501,40
799,47	1311,90
799,91	1617,40
800,34	1445,40
800,78	1504,40
801,22	1313,40
801,65	1223,90
802,09	1499,40
802,53	1866,90
802,96	1531,90
803,40	1249,40
803,84	1957,90
804,27	1638,40
804,71	1335,40
805,15	1630,40
805,58	1573,90
806,02	1361,40
806,46	1829,40
806,89	2007,40
807,33	1680,40
807,76	1613,90
808,20	1457,40
808,64	1381,40
809,07	2027,90
809,51	2169,90
809,95	2006,90
810,38	1694,40
810,82	2115,40
811,25	1431,90
811,69	1559,40
812,13	1295,40
812,56	1678,90
813,00	1494,40
813,43	1395,40
813,87	1272,90
814,30	1602,90
814,74	1931,90
815,18	2480,40
815,61	1409,40
816,05	1327,40
816,48	1718,90
816,92	2033,90
817,35	1727,40
817,79	1556,40
818,23	1729,40
818,66	1699,40
819,10	1579,40
819,53	1398,40
819,97	1414,90
820,40	1380,40
820,84	1742,90
821,27	1521,40
821,71	1801,40
822,14	1402,90
822,58	1723,40
823,01	1806,40
823,45	1442,90
823,88	1618,90
824,32	1409,90
824,75	1496,40
825,19	1338,90
825,63	1894,90
826,06	1344,90
826,50	1524,90
826,93	1591,40
827,37	1304,90
827,80	1512,90
828,23	1534,40
828,67	1590,90
829,10	1662,90
829,54	1335,90
829,97	1465,90
830,41	1096,90
830,84	1560,40
831,28	1659,90
831,71	1767,40
832,15	1424,90
832,58	1755,90
833,02	1642,90
833,45	1435,40
833,89	1997,90
834,32	1398,40
834,75	2186,40
835,19	1762,90
835,62	1712,90
836,06	1250,40
836,49	1524,40
836,93	1438,90
837,36	1764,40
837,79	1738,90
838,23	1513,90
838,66	1327,40
839,10	1835,40
839,53	1488,90
839,97	1624,90
840,40	1438,90
840,83	1725,90
841,27	1373,90
841,70	1385,90
842,14	1606,90
842,57	1517,40
843,00	1966,40
843,44	2154,90
843,87	1629,40
844,31	1935,90
844,74	1141,90
845,17	1368,90
845,61	1251,40
846,04	1415,40
846,47	1683,90
846,91	1525,40
847,34	1712,40
847,77	1572,40
848,21	1323,90
848,64	1694,90
849,08	1513,90
849,51	1729,40
849,94	1370,90
850,38	1402,40
850,81	1540,40
851,24	1353,40
851,68	1432,90
852,11	1412,90
852,54	1658,40
852,98	1793,90
853,41	1731,90
853,84	1449,40
854,28	1890,40
854,71	1368,40
855,14	1613,90
855,57	1847,40
856,01	1403,90
856,44	1374,90
856,87	1675,90
857,31	1291,40
857,74	1716,90
858,17	1258,40
858,61	1405,40
859,04	1849,40
859,47	1952,40
859,90	1527,90
860,34	1670,40
860,77	1478,90
861,20	1272,40
861,63	1843,40
862,07	1199,90
862,50	1329,40
862,93	1473,40
863,37	1481,40
863,80	1542,90
864,23	1690,90
864,66	1331,40
865,10	1449,90
865,53	1633,90
865,96	1363,40
866,39	1415,90
866,82	1678,90
867,26	1308,40
867,69	1527,90
868,12	1490,90
868,55	1162,40
868,99	1487,40
869,42	1177,40
869,85	1714,90
870,28	1317,90
870,71	1572,90
871,15	1544,40
871,58	1361,40
872,01	1628,90
872,44	1518,90
872,87	1893,40
873,31	2318,90
873,74	1228,90
874,17	1515,90
874,60	1516,90
875,03	1343,90
875,47	1596,40
875,90	1611,90
876,33	1454,40
876,76	1785,40
877,19	1657,40
877,62	1392,90
878,06	1282,90
878,49	1811,90
878,92	1175,90
879,35	1595,90
879,78	1508,90
880,21	1512,90
880,64	1485,40
881,08	1443,90
881,51	1574,40
881,94	1484,90
882,37	1913,90
882,80	1321,40
883,23	1349,40
883,66	1405,90
884,09	1527,90
884,53	1749,90
884,96	1461,90
885,39	1473,40
885,82	1411,40
886,25	1491,90
886,68	1266,90
887,11	1690,40
887,54	1495,40
887,97	1621,90
888,40	1754,90
888,84	1418,90
889,27	1306,90
889,70	2021,40
890,13	1285,90
890,56	1350,40
890,99	1507,90
891,42	1419,40
891,85	2360,90
892,28	1234,40
892,71	1739,40
893,14	1362,90
893,57	1672,40
894,00	1620,40
894,43	1266,90
894,86	1332,90
895,29	1427,40
895,73	1247,90
896,16	1388,40
896,59	1607,90
897,02	1367,40
897,45	1697,90
897,88	1364,40
898,31	1349,40
898,74	1563,40
899,17	1670,40
899,60	1302,90
900,03	1284,40
900,46	1349,40
900,89	1577,40
901,32	1802,90
901,75	1320,40
902,18	1312,90
902,61	1340,40
903,04	1677,90
903,47	1642,90
903,90	1343,40
904,33	2031,90
904,76	2065,40
905,19	1378,40
905,62	1391,40
906,05	2028,90
906,48	1304,40
906,91	1612,40
907,34	1362,90
907,76	1401,90
908,19	1253,90
908,62	1818,90
909,05	1508,90
909,48	1825,90
909,91	1534,90
910,34	1399,90
910,77	1646,40
911,20	1937,40
911,63	1435,40
912,06	1191,40
912,49	1562,40
912,92	1523,90
913,35	1424,40
913,78	1400,40
914,21	1416,40
914,63	1542,40
915,06	1382,90
915,49	1652,40
915,92	1622,90
916,35	1471,90
916,78	1230,90
917,21	1278,90
917,64	1354,40
918,07	1334,40
918,50	1699,90
918,92	1371,40
919,35	1743,40
919,78	1330,90
920,21	1752,90
920,64	1346,90
921,07	1487,40
921,50	1369,40
921,93	1643,90
922,35	1718,40
922,78	1486,40
923,21	1975,90
923,64	1613,90
924,07	1384,90
924,50	1238,90
924,92	1247,90
925,35	1510,40
925,78	1868,90
926,21	1654,40
926,64	1172,90
927,07	1709,40
927,49	1328,40
927,92	1673,40
928,35	2113,90
928,78	1442,40
929,21	1662,40
929,64	1224,90
930,06	2103,90
930,49	1522,90
930,92	1222,40
931,35	1761,40
931,78	1396,40
932,20	1535,90
932,63	1696,40
933,06	1358,90
933,49	1586,40
933,92	1066,40
934,34	1955,40
934,77	1778,40
935,20	2255,40
935,63	1509,90
936,05	1808,40
936,48	1742,90
936,91	1658,90
937,34	1609,90
937,76	1263,90
938,19	1372,90
938,62	1298,40
939,05	1549,90
939,47	1262,40
939,90	1707,90
940,33	1344,40
940,76	1479,90
941,18	1618,40
941,61	1275,90
942,04	1477,40
942,47	1703,90
942,89	2089,90
943,32	1405,40
943,75	1752,40
944,17	1315,40
944,60	1415,90
945,03	1697,90
945,46	1223,40
945,88	1213,90
946,31	1666,40
946,74	1371,90
947,16	1624,90
947,59	1461,40
948,02	1554,90
948,44	1533,40
948,87	1823,90
949,30	1430,40
949,72	1533,90
950,15	1645,40
950,58	1159,90
951,00	1228,40
951,43	1271,40
951,86	2241,40
952,28	1800,40
952,71	1441,90
953,14	1346,40
953,56	1566,90
953,99	1214,90
954,42	1744,40
954,84	1384,90
955,27	1981,90
955,70	1177,90
956,12	1335,40
956,55	1317,90
956,98	1336,90
957,40	1409,40
957,83	1619,40
958,25	1272,90
958,68	1671,40
959,11	2320,40
959,53	1224,90
959,96	1610,90
960,38	1551,90
960,81	1376,40
961,24	1346,90
961,66	1337,40
962,09	1082,90
962,51	1405,90
962,94	1661,90
963,37	1616,90
963,79	1752,90
964,22	1680,90
964,64	1361,90
965,07	1527,40
965,49	1361,90
965,92	1492,90
966,35	1438,40
966,77	1358,90
967,20	1682,90
967,62	1392,40
968,05	1418,90
968,47	1659,40
968,90	1298,90
969,32	1327,40
969,75	1718,90
970,17	2639,90
970,60	1638,40
971,03	1465,90
971,45	1604,40
971,88	1263,40
972,30	1330,90
972,73	1588,90
973,15	1414,40
973,58	1487,90
974,00	1209,90
974,43	1289,40
974,85	1400,90
975,28	1618,90
975,70	1430,40
976,13	1659,90
976,55	1553,90
976,98	1325,40
977,40	1326,90
977,83	1351,90
978,25	1493,40
978,68	1279,40
979,10	1657,40
979,53	1478,40
979,95	1420,90
980,37	1414,90
980,80	1422,90
981,22	1731,90
981,65	1660,40
982,07	1307,90
982,50	1597,40
982,92	1680,40
983,35	1451,40
983,77	1464,90
984,20	1401,40
984,62	1411,90
985,04	1329,40
985,47	1643,90
985,89	1672,40
986,32	1264,90
986,74	1167,90
987,17	1433,90
987,59	1613,40
988,01	1392,90
988,44	1290,40
988,86	1520,40
989,29	1505,40
989,71	1554,40
990,13	1437,40
990,56	1593,40
990,98	1507,40
991,41	1395,40
991,83	1545,40
992,25	1509,40
992,68	1605,90
993,10	1909,90
993,53	1430,40
993,95	1275,90
994,37	1454,90
994,80	1361,40
995,22	1397,90
995,64	1652,40
996,07	1714,90
996,49	1489,90
996,91	1473,40
997,34	1162,40
997,76	1195,90
998,18	1097,90
998,61	1807,40
999,03	1765,90
999,45	1423,40
999,88	1537,40
1000,30	1346,40
1000,72	1961,90
1001,15	1485,90
1001,57	1521,90
1001,99	1889,40
1002,42	1333,40
1002,84	1543,40
1003,26	1639,90
1003,69	1520,40
1004,11	1514,90
1004,53	1488,90
1004,96	1604,40
1005,38	1273,90
1005,80	1531,40
1006,22	1504,90
1006,65	1831,90
1007,07	1466,90
1007,49	1249,40
1007,92	1580,90
1008,34	1477,40
1008,76	1328,90
1009,18	1205,90
1009,61	1426,40
1010,03	1336,40
1010,45	2468,90
1010,87	1786,40
1011,30	1713,40
1011,72	1541,40
1012,14	1610,40
1012,56	1796,40
1012,99	1450,90
1013,41	1641,90
1013,83	1568,40
1014,25	1552,40
1014,68	1573,40
1015,10	1237,90
1015,52	1856,90
1015,94	1180,90
1016,37	1755,40
1016,79	1306,90
1017,21	1488,90
1017,63	1295,40
1018,05	1602,90
1018,48	1373,40
1018,90	1421,90
1019,32	1482,40
1019,74	1105,90
1020,16	2335,90
1020,59	1859,90
1021,01	1685,90
1021,43	1423,40
1021,85	1490,90
1022,27	1520,40
1022,69	1608,40
1023,12	1657,90
1023,54	1461,90
1023,96	2493,40
1024,38	1827,40
1024,80	1713,40
1025,22	1621,90
1025,65	1558,40
1026,07	1582,40
1026,49	1631,90
1026,91	1341,90
1027,33	1313,40
1027,75	2141,40
1028,17	1635,90
1028,60	1593,90
1029,02	1514,90
1029,44	1629,40
1029,86	1325,40
1030,28	2100,40
1030,70	1493,90
1031,12	1422,90
1031,54	1595,40
1031,97	1927,90
1032,39	1237,90
1032,81	1547,90
1033,23	1696,90
1033,65	1411,40
1034,07	1791,90
1034,49	1330,40
1034,91	1340,40
1035,33	1585,40
1035,75	1735,40
1036,18	1408,40
1036,60	1969,90
1037,02	1403,90
1037,44	1388,90
1037,86	1585,40
1038,28	1171,40
1038,70	1687,90
1039,12	1719,40
1039,54	1681,90
1039,96	1801,40
1040,38	1934,90
1040,80	1503,40
1041,22	1425,90
1041,64	1629,40
1042,06	1450,90
1042,48	1893,90
1042,90	1849,90
1043,32	1724,40
1043,74	1780,90
1044,17	1500,90
1044,59	1761,90
1045,01	1323,40
1045,43	1484,90
1045,85	1427,40
1046,27	1253,40
1046,69	1500,40
1047,11	1639,90
1047,53	1329,90
1047,95	1557,90
1048,37	1718,40
1048,79	1330,40
1049,21	1761,90
1049,63	1660,40
1050,05	1706,40
1050,47	1450,90
1050,89	1427,90
1051,31	1607,40
1051,72	1659,90
1052,14	1889,90
1052,56	1787,40
1052,98	1570,90
1053,40	1713,40
1053,82	1104,90
1054,24	1524,90
1054,66	1137,40
1055,08	1459,90
1055,50	1351,90
1055,92	1589,40
1056,34	1655,90
1056,76	2096,40
1057,18	1810,90
1057,60	1777,40
1058,02	1554,90
1058,44	2656,40
1058,86	1322,40
1059,28	1668,40
1059,69	1680,40
1060,11	1462,90
1060,53	1458,90
1060,95	1377,90
1061,37	1748,40
1061,79	1568,90
1062,21	1444,90
1062,63	1749,90
1063,05	1882,40
1063,47	1655,40
1063,88	1486,40
1064,30	1358,90
1064,72	1724,90
1065,14	1703,90
1065,56	1411,40
1065,98	1311,40
1066,40	1219,40
1066,82	1748,40
1067,23	1518,90
1067,65	1582,90
1068,07	1577,40
1068,49	1443,40
1068,91	1956,40
1069,33	1532,90
1069,75	1399,90
1070,16	1248,90
1070,58	1772,90
1071,00	1821,90
1071,42	1759,90
1071,84	1471,40
1072,26	1713,40
1072,67	1455,90
1073,09	1352,90
1073,51	1232,90
1073,93	1675,90
1074,35	1394,90
1074,77	1203,40
1075,18	1433,90
1075,60	1462,90
1076,02	1479,90
1076,44	1363,90
1076,86	1271,90
1077,27	1509,90
1077,69	1781,40
1078,11	1388,90
1078,53	1699,40
1078,94	1951,90
1079,36	1120,40
1079,78	1533,40
1080,20	1443,90
1080,62	1478,40
1081,03	1680,90
1081,45	1511,90
1081,87	1418,90
1082,29	1594,40
1082,70	1495,90
1083,12	1483,40
1083,54	1527,40
1083,96	1526,90
1084,37	1759,40
1084,79	1524,90
1085,21	1428,40
1085,63	1816,90
1086,04	1333,40
1086,46	1350,90
1086,88	1607,90
1087,30	1194,40
1087,71	1694,90
1088,13	10945,90
1088,55	1566,40
1088,96	1371,40
1089,38	1408,40
1089,80	1434,90
1090,22	1780,90
1090,63	1479,90
1091,05	1267,90
1091,47	1485,40
1091,88	1419,40
1092,30	1287,40
1092,72	1450,90
1093,13	1426,90
1093,55	1509,90
1093,97	1419,90
1094,38	1520,90
1094,80	1400,90
1095,22	1483,90
1095,63	1308,40
1096,05	1432,90
1096,47	1586,90
1096,88	1256,40
1097,30	1525,90
1097,72	1314,90
1098,13	1657,90
1098,55	1569,90
1098,97	1653,90
1099,38	1421,90
1099,80	1453,90
1100,21	1293,90
1100,63	1407,90
1101,05	1387,40
1101,46	1519,90
1101,88	1220,90
1102,30	1376,40
1102,71	1477,90
1103,13	1461,90
1103,54	1517,90
1103,96	1390,90
1104,38	1886,40
1104,79	1007,40
1105,21	1523,90
1105,62	1474,90
1106,04	1315,40
1106,46	1406,90
1106,87	1050,90
1107,29	1164,40
1107,70	1668,40
1108,12	1151,40
1108,54	1607,90
1108,95	1560,90
1109,37	1525,90
1109,78	1060,40
1110,20	1322,40
1110,61	1116,40
1111,03	1116,40
1111,44	1116,40
1111,86	1116,40
1112,28	1116,40
1112,69	1116,40
1113,11	1116,40
1113,52	1116,40
1113,94	1116,40
1114,35	1116,40
1114,77	1116,40
1115,18	1116,40
1115,60	1116,40
1116,01	1116,40
1116,43	1116,40
1116,84	1116,40
1117,26	1116,40
1117,67	1116,40
1118,09	1116,40
1118,50	1116,40
1118,92	1116,40
>>>>>End Processed Spectral Data<<<<<
