SpectraSuite Data File
++++++++++++++++++++++++++++++++++++
Date: Mon Aug 22 09:31:19 EEST 2011
User: OO Maya
Dark Spectrum Present: No
Reference Spectrum Present: No
Number of Sampled Component Spectra: 1
Spectrometers: MAYP11278
Integration Time (usec): 3000000 (MAYP11278)
Spectra Averaged: 2 (MAYP11278)
Boxcar Smoothing: 0 (MAYP11278)
Correct for Electrical Dark: Yes (MAYP11278)
Strobe/Lamp Enabled: No (MAYP11278)
Correct for Detector Non-linearity: No (MAYP11278)
Correct for Stray Light: No (MAYP11278)
Number of Pixels in Processed Spectrum: 2068
>>>>>Begin Processed Spectral Data<<<<<
200,00	5714,00
200,47	-1773,04
200,95	-1776,04
201,42	-1780,04
201,89	1225,46
202,37	1190,96
202,84	1177,96
203,31	1223,96
203,79	1408,96
204,26	1151,96
204,73	1046,46
205,20	974,46
205,68	1125,46
206,15	1104,96
206,62	1276,96
207,10	1103,96
207,57	1383,46
208,04	1094,96
208,51	1194,46
208,99	1804,46
209,46	1249,96
209,93	1016,46
210,41	1148,96
210,88	1088,46
211,35	1243,96
211,82	1347,46
212,30	1156,96
212,77	1214,46
213,24	1406,96
213,71	1419,96
214,19	1355,46
214,66	1017,46
215,13	1316,96
215,60	1077,46
216,08	1398,46
216,55	1515,96
217,02	1104,46
217,49	1126,96
217,96	1556,96
218,44	1178,96
218,91	1292,96
219,38	1867,96
219,85	1244,96
220,33	1379,96
220,80	1228,96
221,27	1436,46
221,74	1378,96
222,21	1226,96
222,69	1247,96
223,16	1332,96
223,63	1242,96
224,10	1103,96
224,57	1621,46
225,04	1395,96
225,52	1166,46
225,99	1639,96
226,46	1367,96
226,93	1581,46
227,40	1362,96
227,87	1453,96
228,35	1392,46
228,82	1414,46
229,29	1196,96
229,76	1202,96
230,23	1581,46
230,70	1030,46
231,18	1131,46
231,65	1208,96
232,12	1274,46
232,59	1575,46
233,06	1177,96
233,53	1469,46
234,00	1156,96
234,48	1489,46
234,95	1161,46
235,42	1455,46
235,89	1263,46
236,36	1187,46
236,83	1065,96
237,30	1264,96
237,77	1158,46
238,24	1280,96
238,72	1505,96
239,19	1297,96
239,66	1390,46
240,13	1463,46
240,60	1396,96
241,07	1266,46
241,54	1294,46
242,01	1206,96
242,48	1498,96
242,95	1538,46
243,42	1323,46
243,90	1350,96
244,37	1153,46
244,84	1291,46
245,31	1359,46
245,78	2103,46
246,25	1344,46
246,72	1168,96
247,19	1155,46
247,66	1107,96
248,13	1498,46
248,60	1747,46
249,07	1239,96
249,54	1376,96
250,01	1323,96
250,48	1374,46
250,95	1304,96
251,42	1041,96
251,89	1412,96
252,36	1655,46
252,83	1364,96
253,30	1289,46
253,77	1470,96
254,24	1555,96
254,71	1113,46
255,18	1177,46
255,65	1480,46
256,12	1670,46
256,59	1294,46
257,06	1621,96
257,53	1541,46
258,00	1189,96
258,47	1334,46
258,94	1353,96
259,41	1382,46
259,88	1420,96
260,35	1006,46
260,82	1342,96
261,29	1452,46
261,76	1410,46
262,23	1674,46
262,70	1325,46
263,17	1765,46
263,64	1576,46
264,11	1207,46
264,58	1592,96
265,05	1420,96
265,52	1265,96
265,99	1420,46
266,46	1420,46
266,93	1515,46
267,40	1251,46
267,87	1393,96
268,34	1429,46
268,81	1549,46
269,28	2105,96
269,74	1402,96
270,21	1209,96
270,68	1410,46
271,15	1486,96
271,62	1695,96
272,09	1297,46
272,56	1193,96
273,03	1604,96
273,50	1188,46
273,97	1427,46
274,44	1376,46
274,90	1122,46
275,37	1578,96
275,84	1601,96
276,31	1287,96
276,78	1397,46
277,25	1478,96
277,72	1514,96
278,19	1248,96
278,66	1305,46
279,12	1374,96
279,59	1438,96
280,06	974,46
280,53	1187,46
281,00	1214,46
281,47	1492,46
281,94	1593,96
282,40	1275,46
282,87	1391,96
283,34	1091,96
283,81	1159,96
284,28	997,96
284,75	1332,96
285,21	2201,96
285,68	1536,46
286,15	1545,46
286,62	1226,96
287,09	1337,96
287,56	1475,46
288,02	1483,46
288,49	1099,96
288,96	1294,96
289,43	1140,46
289,90	2324,46
290,36	1304,96
290,83	1194,46
291,30	2283,96
291,77	1512,46
292,24	2046,96
292,70	1237,46
293,17	1573,46
293,64	1287,96
294,11	1320,46
294,58	1445,46
295,04	1217,46
295,51	1166,96
295,98	1488,96
296,45	1294,46
296,91	1390,46
297,38	1425,46
297,85	1109,46
298,32	1419,96
298,79	1724,96
299,25	1299,96
299,72	1565,46
300,19	978,96
300,66	1663,46
301,12	1169,96
301,59	1405,96
302,06	1230,96
302,52	1440,46
302,99	1907,46
303,46	1224,46
303,93	1622,46
304,39	1252,96
304,86	1451,96
305,33	1465,46
305,80	1153,46
306,26	1353,96
306,73	1416,46
307,20	1741,96
307,66	1730,96
308,13	1483,46
308,60	1418,46
309,07	1470,96
309,53	1292,46
310,00	1709,46
310,47	1315,96
310,93	1522,96
311,40	1227,96
311,87	1562,46
312,33	1573,46
312,80	1531,46
313,27	1201,46
313,73	1549,96
314,20	1593,46
314,67	1163,46
315,13	1295,96
315,60	1160,46
316,07	1379,46
316,53	1430,46
317,00	1412,46
317,47	1524,96
317,93	1227,96
318,40	1270,96
318,87	1435,96
319,33	1276,46
319,80	1559,46
320,26	1566,46
320,73	1442,96
321,20	1440,96
321,66	1472,96
322,13	1294,46
322,60	1569,96
323,06	1372,96
323,53	1791,96
323,99	1210,96
324,46	1310,96
324,93	1506,96
325,39	1266,46
325,86	1190,96
326,32	1575,46
326,79	1445,46
327,26	1414,96
327,72	1527,46
328,19	1387,96
328,65	2057,46
329,12	1368,96
329,59	1311,96
330,05	1135,96
330,52	1488,46
330,98	1804,46
331,45	1525,96
331,91	1323,96
332,38	1077,96
332,85	1153,96
333,31	1791,46
333,78	1280,46
334,24	1463,96
334,71	1153,46
335,17	1449,46
335,64	1298,46
336,10	1307,96
336,57	1271,96
337,03	1266,46
337,50	1468,96
337,96	1491,96
338,43	1446,46
338,90	1418,96
339,36	1289,46
339,83	1395,46
340,29	1281,46
340,76	1258,46
341,22	1526,46
341,69	1438,46
342,15	1774,96
342,62	1213,96
343,08	1879,46
343,55	1518,96
344,01	1458,96
344,48	1679,96
344,94	1449,96
345,41	1490,96
345,87	2283,46
346,34	1122,96
346,80	1354,46
347,27	1302,96
347,73	1462,96
348,19	1287,46
348,66	1304,46
349,12	1776,46
349,59	1535,96
350,05	1153,46
350,52	1272,46
350,98	1219,46
351,45	1472,46
351,91	1596,96
352,38	1262,46
352,84	1396,96
353,30	1555,46
353,77	1462,46
354,23	1390,96
354,70	1400,96
355,16	1217,46
355,63	1388,46
356,09	1473,46
356,55	1267,96
357,02	1185,46
357,48	1705,46
357,95	1266,46
358,41	1626,46
358,87	1414,46
359,34	1107,46
359,80	1443,46
360,27	1591,46
360,73	1400,96
361,19	1207,96
361,66	1441,46
362,12	1806,46
362,59	1499,96
363,05	1304,46
363,51	1403,96
363,98	1515,96
364,44	1532,96
364,91	1535,96
365,37	1438,46
365,83	1802,96
366,30	1225,96
366,76	1767,96
367,22	1199,46
367,69	1870,96
368,15	1578,96
368,61	1078,46
369,08	1185,96
369,54	1265,46
370,00	1248,96
370,47	1583,96
370,93	1726,46
371,39	1326,96
371,86	1367,46
372,32	1372,96
372,78	1339,46
373,25	1356,46
373,71	1905,46
374,17	1527,96
374,64	1252,46
375,10	1493,46
375,56	1247,96
376,03	1115,46
376,49	1425,46
376,95	1346,96
377,42	1359,46
377,88	1056,46
378,34	1118,96
378,80	1589,46
379,27	1116,46
379,73	1584,46
380,19	1385,96
380,66	1288,96
381,12	1321,96
381,58	1446,46
382,04	1250,46
382,51	1063,46
382,97	1307,46
383,43	1453,46
383,89	1114,46
384,36	1126,96
384,82	1457,46
385,28	1031,46
385,74	1641,46
386,21	1268,96
386,67	1177,46
387,13	1087,46
387,59	1427,96
388,06	1395,46
388,52	1357,46
388,98	1354,96
389,44	1330,46
389,91	1467,96
390,37	1697,46
390,83	1320,96
391,29	1696,46
391,75	1692,46
392,22	1070,46
392,68	1396,96
393,14	1297,46
393,60	1603,46
394,06	1412,46
394,53	2603,96
394,99	1379,96
395,45	1283,96
395,91	1303,96
396,37	1800,96
396,84	1174,96
397,30	1151,46
397,76	1597,46
398,22	1478,46
398,68	1635,96
399,14	1230,96
399,61	1553,46
400,07	1403,46
400,53	1515,46
400,99	1504,96
401,45	1386,46
401,91	1482,96
402,38	1290,96
402,84	1296,46
403,30	1963,46
403,76	1332,46
404,22	1657,96
404,68	1184,96
405,14	1473,96
405,61	2525,96
406,07	1106,96
406,53	1473,46
406,99	1609,46
407,45	1193,46
407,91	1366,46
408,37	1224,46
408,83	1127,96
409,29	1603,96
409,76	1094,46
410,22	1358,96
410,68	1318,96
411,14	1433,46
411,60	1439,46
412,06	1401,96
412,52	1183,46
412,98	1680,46
413,44	1339,46
413,90	1645,96
414,36	1785,96
414,83	1575,96
415,29	1137,46
415,75	1572,46
416,21	1529,46
416,67	1866,96
417,13	1358,96
417,59	1417,96
418,05	1534,96
418,51	1189,46
418,97	1615,46
419,43	1180,96
419,89	1700,46
420,35	1189,96
420,81	1664,96
421,27	1169,46
421,73	1105,96
422,19	1468,96
422,65	1259,96
423,11	1435,96
423,57	1537,96
424,03	1734,46
424,49	1298,46
424,96	1765,46
425,42	1431,96
425,88	1474,96
426,34	1840,96
426,80	1445,46
427,26	1372,46
427,72	1427,96
428,18	1388,96
428,64	1559,46
429,10	1230,46
429,56	1610,46
430,02	1181,96
430,47	1387,96
430,93	1255,46
431,39	1475,96
431,85	1279,96
432,31	1394,46
432,77	1443,46
433,23	1578,96
433,69	1399,46
434,15	1572,96
434,61	1381,96
435,07	1693,96
435,53	1314,46
435,99	1701,46
436,45	1576,46
436,91	1623,96
437,37	1166,46
437,83	1661,46
438,29	1475,96
438,75	1384,46
439,21	1503,46
439,67	2247,96
440,12	1173,96
440,58	1343,96
441,04	1717,96
441,50	1625,46
441,96	1399,96
442,42	1266,96
442,88	1409,46
443,34	1337,96
443,80	1582,96
444,26	1212,96
444,72	1596,96
445,17	1410,96
445,63	1139,96
446,09	1623,96
446,55	1513,46
447,01	1477,46
447,47	1306,96
447,93	1337,96
448,39	2438,46
448,85	1546,96
449,30	1634,96
449,76	1714,96
450,22	1262,96
450,68	1348,46
451,14	2050,46
451,60	1242,46
452,06	1484,96
452,51	1476,96
452,97	1198,46
453,43	1772,46
453,89	1511,96
454,35	1441,46
454,81	1419,46
455,26	1496,96
455,72	1396,46
456,18	1477,96
456,64	1320,46
457,10	1249,96
457,56	1525,46
458,01	1530,96
458,47	1394,46
458,93	1226,46
459,39	1230,96
459,85	1302,96
460,30	1461,96
460,76	1603,46
461,22	1244,96
461,68	1679,96
462,14	1438,96
462,59	1365,46
463,05	1441,46
463,51	1591,96
463,97	1345,96
464,43	1485,46
464,88	1659,46
465,34	1279,96
465,80	1746,96
466,26	1385,96
466,71	1348,46
467,17	1131,46
467,63	1423,96
468,09	1371,46
468,54	1444,96
469,00	1308,46
469,46	1209,46
469,92	1759,46
470,37	1646,46
470,83	1301,46
471,29	1167,96
471,75	1722,46
472,20	1339,46
472,66	1422,46
473,12	1443,96
473,58	1245,96
474,03	1344,96
474,49	1603,96
474,95	1443,46
475,40	1511,46
475,86	1560,46
476,32	1416,96
476,78	1457,46
477,23	1511,96
477,69	1397,46
478,15	1231,96
478,60	1498,96
479,06	1422,96
479,52	1336,46
479,97	1370,46
480,43	1252,46
480,89	1272,96
481,34	1302,46
481,80	1780,46
482,26	1353,46
482,71	1228,46
483,17	1347,96
483,63	1184,46
484,08	1482,96
484,54	1387,96
485,00	1498,46
485,45	1318,96
485,91	1457,46
486,37	1742,96
486,82	1480,96
487,28	1689,96
487,74	1271,96
488,19	1836,46
488,65	1560,46
489,10	1358,46
489,56	1302,46
490,02	1387,96
490,47	1409,96
490,93	1210,46
491,39	1393,46
491,84	1073,96
492,30	1351,96
492,75	1772,96
493,21	1461,46
493,67	1388,46
494,12	1081,96
494,58	1344,96
495,03	1116,46
495,49	1464,46
495,95	1128,96
496,40	1112,96
496,86	1259,96
497,31	1485,96
497,77	1426,46
498,23	1642,96
498,68	1165,96
499,14	1401,46
499,59	1115,46
500,05	1257,96
500,50	1118,96
500,96	1607,46
501,41	1448,96
501,87	1394,46
502,33	1190,96
502,78	1356,46
503,24	1272,46
503,69	1188,96
504,15	1451,46
504,60	1268,96
505,06	1331,96
505,51	1853,96
505,97	1695,46
506,42	1286,46
506,88	1418,96
507,33	1287,46
507,79	1970,46
508,24	1427,96
508,70	1269,46
509,15	1402,96
509,61	1334,46
510,06	1536,96
510,52	1391,96
510,97	1426,96
511,43	1417,46
511,88	1479,46
512,34	1254,46
512,79	1476,46
513,25	1435,96
513,70	1210,96
514,16	1361,96
514,61	1582,96
515,07	1362,96
515,52	1518,96
515,98	1483,96
516,43	1209,46
516,89	1219,46
517,34	1106,96
517,80	1296,46
518,25	1423,46
518,70	1230,96
519,16	1701,96
519,61	1718,96
520,07	1213,96
520,52	1085,46
520,98	1238,96
521,43	1489,96
521,89	1001,46
522,34	1632,46
522,79	1730,46
523,25	1065,96
523,70	1446,46
524,16	1658,96
524,61	1565,96
525,06	2041,46
525,52	1464,46
525,97	1375,96
526,43	2300,46
526,88	1412,96
527,33	1261,96
527,79	1183,96
528,24	1170,46
528,70	1471,96
529,15	1510,96
529,60	1600,46
530,06	1386,96
530,51	1113,96
530,97	1848,96
531,42	1580,46
531,87	1315,96
532,33	1822,46
532,78	1462,46
533,23	1551,96
533,69	1715,46
534,14	1466,96
534,59	1369,96
535,05	1325,96
535,50	1338,96
535,96	1547,46
536,41	1520,46
536,86	1333,96
537,32	1182,46
537,77	1562,96
538,22	1574,96
538,68	1185,46
539,13	1650,96
539,58	1380,46
540,03	1365,96
540,49	1403,46
540,94	1493,46
541,39	1371,96
541,85	1164,46
542,30	1340,96
542,75	1318,46
543,21	1450,46
543,66	1233,96
544,11	1536,96
544,57	1223,46
545,02	1579,96
545,47	1324,46
545,92	1383,96
546,38	1820,46
546,83	1574,46
547,28	2746,46
547,73	1118,46
548,19	1783,46
548,64	1506,46
549,09	1136,46
549,55	1535,96
550,00	1474,96
550,45	1295,46
550,90	2155,96
551,36	1156,96
551,81	1915,46
552,26	1615,46
552,71	1439,46
553,17	1322,96
553,62	1584,46
554,07	1429,96
554,52	1471,96
554,97	1584,46
555,43	1489,96
555,88	1362,96
556,33	1313,46
556,78	1291,46
557,24	1938,46
557,69	1368,96
558,14	1161,46
558,59	1500,96
559,04	1458,96
559,50	1892,96
559,95	1498,96
560,40	1250,96
560,85	1499,96
561,30	1344,96
561,76	1284,46
562,21	1474,96
562,66	1401,46
563,11	1825,46
563,56	1452,46
564,01	1719,96
564,47	1058,46
564,92	1463,96
565,37	1902,46
565,82	1290,46
566,27	1354,46
566,72	1295,46
567,18	1234,96
567,63	1224,96
568,08	1407,46
568,53	1327,96
568,98	1413,96
569,43	1318,46
569,88	1269,46
570,34	1417,46
570,79	1680,46
571,24	1241,96
571,69	1457,96
572,14	1321,96
572,59	1373,46
573,04	1402,46
573,49	1688,96
573,94	1376,46
574,40	1270,96
574,85	1401,46
575,30	1592,96
575,75	1309,96
576,20	1382,46
576,65	1541,96
577,10	1414,46
577,55	1359,96
578,00	1545,96
578,45	1572,46
578,91	1366,96
579,36	1431,96
579,81	1530,46
580,26	1293,96
580,71	1263,96
581,16	1375,46
581,61	1727,96
582,06	1571,46
582,51	1185,46
582,96	1509,96
583,41	992,46
583,86	1662,46
584,31	1340,46
584,76	1299,46
585,21	1164,46
585,66	1727,96
586,11	1408,96
586,56	1256,46
587,01	1455,46
587,46	1488,96
587,92	1378,96
588,37	1354,46
588,82	1462,46
589,27	1378,96
589,72	1181,96
590,17	1381,46
590,62	1494,46
591,07	1314,96
591,52	1498,46
591,97	1226,46
592,42	2042,96
592,87	1324,46
593,32	1277,96
593,77	1315,96
594,22	1421,96
594,67	1643,96
595,12	1201,96
595,56	1507,96
596,01	1337,96
596,46	1244,46
596,91	1479,96
597,36	1515,46
597,81	1285,46
598,26	1131,96
598,71	1711,46
599,16	1284,96
599,61	1495,96
600,06	1344,46
600,51	1636,46
600,96	1389,46
601,41	1405,96
601,86	1731,46
602,31	1300,46
602,76	1263,96
603,21	1788,46
603,66	1590,96
604,11	1652,46
604,55	1459,46
605,00	1125,96
605,45	1372,96
605,90	1701,96
606,35	1276,96
606,80	1537,46
607,25	1673,46
607,70	1483,96
608,15	1590,96
608,60	1101,46
609,04	2107,46
609,49	1279,96
609,94	1384,46
610,39	1154,46
610,84	1075,46
611,29	1491,96
611,74	1343,46
612,19	1559,46
612,64	1464,46
613,08	1070,96
613,53	1409,46
613,98	1353,46
614,43	1405,96
614,88	1482,46
615,33	1415,96
615,78	2005,96
616,22	1564,96
616,67	1314,96
617,12	1319,46
617,57	1385,46
618,02	1131,96
618,47	1842,96
618,91	1510,46
619,36	1447,96
619,81	2154,46
620,26	1117,96
620,71	1128,96
621,16	1109,46
621,60	1085,96
622,05	1429,46
622,50	1328,96
622,95	1207,96
623,40	1352,46
623,84	1392,96
624,29	1603,96
624,74	1277,46
625,19	1342,96
625,64	1311,46
626,08	1591,96
626,53	1348,46
626,98	1558,96
627,43	1674,96
627,87	1366,46
628,32	1591,46
628,77	1710,46
629,22	1637,96
629,66	1310,96
630,11	1212,96
630,56	1711,96
631,01	1156,46
631,46	1346,46
631,90	1404,46
632,35	1253,46
632,80	1388,46
633,25	1461,96
633,69	1216,96
634,14	1575,46
634,59	1529,46
635,03	1026,46
635,48	1364,96
635,93	1446,96
636,38	1221,46
636,82	1523,96
637,27	1354,96
637,72	1502,96
638,16	1493,96
638,61	1676,46
639,06	1262,46
639,51	1285,96
639,95	1203,96
640,40	1264,46
640,85	1132,96
641,29	1335,96
641,74	1261,46
642,19	1091,96
642,63	1321,96
643,08	1289,96
643,53	1222,46
643,97	1542,96
644,42	1562,96
644,87	1261,46
645,31	1346,96
645,76	1145,46
646,21	1043,46
646,65	1432,96
647,10	1630,96
647,55	1049,96
647,99	1264,96
648,44	1282,96
648,89	1043,46
649,33	1267,96
649,78	1483,46
650,23	1192,96
650,67	1163,46
651,12	1232,46
651,56	1157,46
652,01	1390,96
652,46	1400,96
652,90	1378,46
653,35	1581,96
653,80	1428,96
654,24	1453,46
654,69	1077,96
655,13	1655,96
655,58	1471,46
656,03	2376,96
656,47	1211,96
656,92	1163,46
657,36	1276,96
657,81	1393,46
658,26	1164,46
658,70	1320,46
659,15	1243,96
659,59	1157,46
660,04	1357,46
660,48	1422,46
660,93	1270,46
661,38	1165,46
661,82	1540,46
662,27	1203,96
662,71	1341,46
663,16	1491,46
663,60	1484,96
664,05	1158,46
664,49	1372,46
664,94	1207,46
665,38	2457,46
665,83	1251,96
666,28	1562,46
666,72	1302,96
667,17	1142,96
667,61	1342,96
668,06	1146,96
668,50	1010,46
668,95	1467,96
669,39	1182,96
669,84	1230,96
670,28	1317,46
670,73	1128,96
671,17	1359,96
671,62	1153,46
672,06	1402,46
672,51	1407,46
672,95	1994,96
673,40	1717,46
673,84	1216,46
674,29	1433,46
674,73	1148,46
675,18	1863,46
675,62	969,46
676,07	1143,96
676,51	1620,46
676,95	1320,96
677,40	1708,96
677,84	1920,96
678,29	1340,46
678,73	1308,46
679,18	1645,96
679,62	2272,96
680,07	1393,46
680,51	1438,46
680,96	1008,46
681,40	1122,96
681,84	1363,96
682,29	1295,46
682,73	1329,46
683,18	1288,96
683,62	2056,46
684,07	1199,46
684,51	1255,46
684,95	1362,96
685,40	1223,96
685,84	1351,96
686,29	1301,46
686,73	950,96
687,17	970,96
687,62	1238,96
688,06	1331,96
688,51	1527,96
688,95	1449,96
689,39	1392,46
689,84	1657,96
690,28	1486,96
690,73	1387,46
691,17	1430,96
691,61	1288,96
692,06	1100,96
692,50	1391,96
692,94	1209,96
693,39	1333,46
693,83	1303,46
694,27	2020,96
694,72	1500,46
695,16	1103,46
695,60	1259,96
696,05	1322,46
696,49	1050,96
696,94	1320,46
697,38	1069,46
697,82	1351,96
698,27	1224,46
698,71	1480,96
699,15	1488,46
699,59	1342,46
700,04	1346,96
700,48	2521,46
700,92	1378,46
701,37	1371,46
701,81	1844,96
702,25	1317,96
702,70	1179,96
703,14	1397,96
703,58	1123,96
704,03	1530,96
704,47	1495,46
704,91	1139,96
705,35	1240,96
705,80	1502,96
706,24	1548,96
706,68	2351,96
707,13	1037,46
707,57	1683,46
708,01	1197,46
708,45	1240,96
708,90	1373,46
709,34	1268,96
709,78	1277,46
710,22	1680,96
710,67	1585,96
711,11	1527,96
711,55	1030,46
711,99	1508,96
712,44	1319,46
712,88	1281,96
713,32	1424,96
713,76	1524,46
714,21	1332,96
714,65	1250,46
715,09	1274,96
715,53	1304,96
715,97	1181,46
716,42	1455,96
716,86	1371,46
717,30	1361,96
717,74	1104,96
718,18	1817,46
718,63	1331,46
719,07	1364,96
719,51	1677,96
719,95	1493,96
720,39	1342,46
720,84	1330,96
721,28	1235,46
721,72	1313,46
722,16	1098,96
722,60	1028,96
723,04	1434,96
723,49	1780,96
723,93	1132,46
724,37	1106,46
724,81	1376,96
725,25	1309,96
725,69	1215,46
726,14	1412,96
726,58	1229,46
727,02	1435,46
727,46	1245,96
727,90	1081,46
728,34	1015,46
728,78	1375,46
729,23	1018,96
729,67	1437,96
730,11	1003,46
730,55	1224,46
730,99	1245,46
731,43	1326,46
731,87	1825,46
732,31	1103,46
732,76	1652,46
733,20	1378,96
733,64	1233,46
734,08	1613,46
734,52	1194,96
734,96	1583,46
735,40	1129,96
735,84	1365,46
736,28	1431,46
736,72	1406,46
737,16	1370,46
737,61	1144,46
738,05	1455,46
738,49	1468,96
738,93	1185,46
739,37	1499,46
739,81	1490,46
740,25	1359,96
740,69	2078,96
741,13	1153,96
741,57	1332,96
742,01	1513,96
742,45	1470,46
742,89	1328,46
743,33	1208,46
743,77	1324,46
744,21	1039,96
744,65	1609,46
745,09	1401,96
745,53	1161,46
745,98	1469,96
746,42	1459,46
746,86	1307,46
747,30	1336,96
747,74	1104,96
748,18	1149,46
748,62	1295,46
749,06	1566,96
749,50	1517,46
749,94	1349,96
750,38	1599,96
750,82	1709,46
751,26	934,96
751,70	1104,46
752,14	1064,96
752,58	1422,96
753,02	1271,46
753,45	1211,96
753,89	1393,96
754,33	2037,96
754,77	1347,46
755,21	1310,96
755,65	1068,46
756,09	1184,96
756,53	1195,96
756,97	1248,96
757,41	1775,46
757,85	1188,46
758,29	1272,96
758,73	1065,46
759,17	1219,46
759,61	1105,96
760,05	1266,46
760,49	1325,46
760,93	1580,46
761,37	1195,46
761,80	1707,96
762,24	1346,46
762,68	1221,96
763,12	1239,46
763,56	1285,96
764,00	1067,96
764,44	1199,46
764,88	1396,46
765,32	1249,46
765,76	1435,46
766,20	1646,46
766,63	1276,96
767,07	1088,46
767,51	1309,96
767,95	1461,46
768,39	1288,96
768,83	1077,96
769,27	1193,46
769,71	1420,96
770,14	1147,96
770,58	1090,96
771,02	1192,46
771,46	1286,96
771,90	1351,96
772,34	1381,96
772,78	1544,96
773,21	1281,96
773,65	1796,96
774,09	1094,46
774,53	1280,46
774,97	1159,46
775,41	1077,96
775,84	1399,46
776,28	1289,96
776,72	1363,96
777,16	1055,96
777,60	1237,96
778,04	1237,96
778,47	963,96
778,91	1293,46
779,35	1139,96
779,79	1402,96
780,23	1342,46
780,66	1095,96
781,10	1210,46
781,54	1289,96
781,98	1417,46
782,42	1448,46
782,85	1203,96
783,29	1334,96
783,73	2064,46
784,17	1663,46
784,61	1311,46
785,04	1514,96
785,48	1446,96
785,92	1162,96
786,36	1367,46
786,79	1071,96
787,23	1240,46
787,67	1536,46
788,11	1581,46
788,54	1350,46
788,98	1232,46
789,42	1256,46
789,86	1147,46
790,29	1498,46
790,73	1500,46
791,17	1634,46
791,60	1111,96
792,04	1220,96
792,48	1395,96
792,92	1166,96
793,35	1257,46
793,79	1196,46
794,23	1310,46
794,67	1061,96
795,10	1177,46
795,54	1562,46
795,98	1216,46
796,41	1291,96
796,85	1220,96
797,29	2477,96
797,72	1563,96
798,16	1332,96
798,60	1388,96
799,03	1311,96
799,47	1099,46
799,91	1416,96
800,34	1273,46
800,78	1364,96
801,22	1171,96
801,65	1090,96
802,09	1335,96
802,53	1601,96
802,96	1367,96
803,40	1085,96
803,84	1737,96
804,27	1406,96
804,71	1167,46
805,15	1380,46
805,58	1348,46
806,02	1194,96
806,46	1594,46
806,89	1732,46
807,33	1479,46
807,76	1386,46
808,20	1243,96
808,64	1205,96
809,07	1845,46
809,51	1926,96
809,95	1812,96
810,38	1542,96
810,82	1840,46
811,25	1229,46
811,69	1314,46
812,13	1095,96
812,56	1463,96
813,00	1317,96
813,43	1159,46
813,87	1069,46
814,30	1407,96
814,74	1651,46
815,18	2260,46
815,61	1212,46
816,05	1128,46
816,48	1470,46
816,92	1808,46
817,35	1552,96
817,79	1315,96
818,23	1482,46
818,66	1420,46
819,10	1367,46
819,53	1240,96
819,97	1122,96
820,40	1164,96
820,84	1468,46
821,27	1316,96
821,71	1576,96
822,14	1207,96
822,58	1499,46
823,01	1614,96
823,45	1272,96
823,88	1436,96
824,32	1256,96
824,75	1329,96
825,19	1162,46
825,63	1731,96
826,06	1159,46
826,50	1370,46
826,93	1424,96
827,37	1097,46
827,80	1348,96
828,23	1312,96
828,67	1381,96
829,10	1418,46
829,54	1160,46
829,97	1219,96
830,41	934,46
830,84	1328,96
831,28	1426,96
831,71	1587,96
832,15	1203,46
832,58	1518,96
833,02	1404,46
833,45	1207,96
833,89	1734,96
834,32	1241,96
834,75	1939,46
835,19	1571,96
835,62	1484,96
836,06	1031,46
836,49	1317,46
836,93	1293,96
837,36	1524,46
837,79	1485,96
838,23	1285,46
838,66	1170,96
839,10	1597,96
839,53	1274,46
839,97	1368,46
840,40	1246,46
840,83	1540,46
841,27	1162,96
841,70	1216,96
842,14	1410,46
842,57	1313,96
843,00	1740,46
843,44	1891,96
843,87	1376,46
844,31	1624,46
844,74	978,46
845,17	1144,96
845,61	1057,96
846,04	1219,96
846,47	1478,46
846,91	1370,96
847,34	1483,96
847,77	1341,96
848,21	1192,96
848,64	1458,96
849,08	1273,46
849,51	1509,46
849,94	1172,46
850,38	1201,46
850,81	1319,46
851,24	1196,96
851,68	1217,46
852,11	1223,46
852,54	1466,96
852,98	1614,96
853,41	1501,46
853,84	1265,46
854,28	1619,46
854,71	1106,46
855,14	1388,46
855,57	1569,46
856,01	1260,46
856,44	1222,96
856,87	1479,96
857,31	1060,46
857,74	1516,96
858,17	1082,46
858,61	1223,46
859,04	1574,96
859,47	1700,96
859,90	1280,96
860,34	1409,96
860,77	1301,46
861,20	1105,96
861,63	1624,46
862,07	1009,96
862,50	1168,96
862,93	1265,96
863,37	1327,46
863,80	1377,46
864,23	1480,96
864,66	1213,46
865,10	1283,96
865,53	1379,96
865,96	1172,96
866,39	1242,46
866,82	1462,96
867,26	1153,46
867,69	1346,96
868,12	1260,96
868,55	1004,96
868,99	1257,46
869,42	1001,46
869,85	1473,96
870,28	1117,46
870,71	1382,46
871,15	1246,96
871,58	1206,96
872,01	1420,46
872,44	1298,96
872,87	1694,96
873,31	2003,46
873,74	1088,46
874,17	1290,96
874,60	1278,46
875,03	1201,96
875,47	1393,46
875,90	1451,96
876,33	1300,46
876,76	1574,46
877,19	1409,46
877,62	1211,96
878,06	1124,46
878,49	1572,46
878,92	960,96
879,35	1405,46
879,78	1266,46
880,21	1351,46
880,64	1302,46
881,08	1300,46
881,51	1397,46
881,94	1259,46
882,37	1699,46
882,80	1113,96
883,23	1144,96
883,66	1226,46
884,09	1321,46
884,53	1526,96
884,96	1233,96
885,39	1259,46
885,82	1222,46
886,25	1242,96
886,68	1032,46
887,11	1434,96
887,54	1293,96
887,97	1422,46
888,40	1525,46
888,84	1227,96
889,27	1133,96
889,70	1737,46
890,13	1106,46
890,56	1148,96
890,99	1286,46
891,42	1209,46
891,85	2102,46
892,28	1042,96
892,71	1480,96
893,14	1186,46
893,57	1457,46
894,00	1444,46
894,43	1044,96
894,86	1135,46
895,29	1218,46
895,73	1021,46
896,16	1183,96
896,59	1397,46
897,02	1253,46
897,45	1466,46
897,88	1238,46
898,31	1119,46
898,74	1324,46
899,17	1444,96
899,60	1131,46
900,03	1087,96
900,46	1129,96
900,89	1356,46
901,32	1564,46
901,75	1149,96
902,18	1177,46
902,61	1164,46
903,04	1447,96
903,47	1399,96
903,90	1204,96
904,33	1737,96
904,76	1844,96
905,19	1157,46
905,62	1210,46
906,05	1757,96
906,48	1171,46
906,91	1378,46
907,34	1185,46
907,76	1202,96
908,19	1034,96
908,62	1600,96
909,05	1300,96
909,48	1594,96
909,91	1326,46
910,34	1203,96
910,77	1436,46
911,20	1744,46
911,63	1213,46
912,06	1010,96
912,49	1340,96
912,92	1297,96
913,35	1286,46
913,78	1184,96
914,21	1254,96
914,63	1333,96
915,06	1193,46
915,49	1414,46
915,92	1383,46
916,35	1246,96
916,78	1031,96
917,21	1072,96
917,64	1199,96
918,07	1174,46
918,50	1466,96
918,92	1187,46
919,35	1570,96
919,78	1126,96
920,21	1503,46
920,64	1142,46
921,07	1271,96
921,50	1264,96
921,93	1436,96
922,35	1494,96
922,78	1292,46
923,21	1678,46
923,64	1403,46
924,07	1208,46
924,50	1090,46
924,92	1049,46
925,35	1339,46
925,78	1692,46
926,21	1430,46
926,64	981,96
927,07	1465,96
927,49	1094,96
927,92	1450,96
928,35	1857,96
928,78	1211,46
929,21	1372,46
929,64	1024,96
930,06	1889,96
930,49	1282,46
930,92	1058,46
931,35	1507,46
931,78	1183,46
932,20	1389,96
932,63	1481,46
933,06	1190,96
933,49	1386,46
933,92	929,96
934,34	1738,46
934,77	1535,96
935,20	1978,46
935,63	1221,96
936,05	1572,96
936,48	1496,96
936,91	1424,96
937,34	1340,46
937,76	1034,96
938,19	1213,96
938,62	1161,46
939,05	1378,96
939,47	1092,46
939,90	1478,96
940,33	1164,96
940,76	1241,46
941,18	1399,46
941,61	1090,46
942,04	1349,46
942,47	1499,46
942,89	1795,46
943,32	1228,96
943,75	1525,46
944,17	1068,46
944,60	1258,96
945,03	1468,46
945,46	1021,46
945,88	1040,96
946,31	1441,46
946,74	1230,46
947,16	1395,46
947,59	1268,96
948,02	1324,96
948,44	1354,46
948,87	1609,96
949,30	1260,46
949,72	1307,96
950,15	1408,46
950,58	1036,46
951,00	1052,46
951,43	1092,96
951,86	1925,96
952,28	1593,96
952,71	1293,46
953,14	1201,96
953,56	1396,46
953,99	977,96
954,42	1471,96
954,84	1202,96
955,27	1794,46
955,70	1032,96
956,12	1186,96
956,55	1191,46
956,98	1146,96
957,40	1207,96
957,83	1419,46
958,25	1112,46
958,68	1461,96
959,11	2082,96
959,53	1052,96
959,96	1361,46
960,38	1307,96
960,81	1178,46
961,24	1156,46
961,66	1168,46
962,09	960,96
962,51	1184,46
962,94	1432,96
963,37	1424,46
963,79	1503,96
964,22	1435,46
964,64	1114,96
965,07	1343,46
965,49	1164,46
965,92	1299,96
966,35	1311,96
966,77	1148,46
967,20	1469,96
967,62	1184,46
968,05	1224,96
968,47	1408,96
968,90	1094,46
969,32	1148,96
969,75	1495,46
970,17	2391,46
970,60	1493,46
971,03	1283,96
971,45	1358,96
971,88	1102,96
972,30	1155,46
972,73	1426,46
973,15	1182,96
973,58	1278,96
974,00	1057,96
974,43	1110,46
974,85	1234,46
975,28	1368,96
975,70	1217,96
976,13	1472,46
976,55	1317,46
976,98	1154,46
977,40	1160,96
977,83	1092,46
978,25	1286,96
978,68	1082,96
979,10	1449,96
979,53	1294,46
979,95	1252,46
980,37	1266,96
980,80	1220,96
981,22	1487,46
981,65	1406,46
982,07	1125,46
982,50	1344,96
982,92	1509,46
983,35	1232,46
983,77	1258,46
984,20	1181,46
984,62	1193,46
985,04	1131,46
985,47	1490,46
985,89	1437,46
986,32	1065,96
986,74	974,46
987,17	1202,46
987,59	1439,96
988,01	1200,46
988,44	1152,46
988,86	1321,46
989,29	1265,46
989,71	1347,46
990,13	1265,96
990,56	1293,96
990,98	1288,46
991,41	1187,46
991,83	1329,96
992,25	1269,96
992,68	1392,96
993,10	1727,46
993,53	1203,96
993,95	1132,46
994,37	1308,96
994,80	1221,46
995,22	1197,46
995,64	1384,46
996,07	1515,46
996,49	1316,96
996,91	1332,46
997,34	995,96
997,76	1071,46
998,18	961,96
998,61	1563,96
999,03	1507,96
999,45	1154,46
999,88	1360,96
1000,30	1066,96
1000,72	1650,46
1001,15	1313,96
1001,57	1333,46
1001,99	1622,46
1002,42	1096,46
1002,84	1329,46
1003,26	1401,46
1003,69	1325,96
1004,11	1335,46
1004,53	1300,96
1004,96	1392,46
1005,38	1089,96
1005,80	1349,96
1006,22	1318,96
1006,65	1589,46
1007,07	1246,96
1007,49	1098,46
1007,92	1363,96
1008,34	1269,46
1008,76	1118,96
1009,18	1004,46
1009,61	1227,96
1010,03	1155,96
1010,45	2193,96
1010,87	1521,96
1011,30	1513,46
1011,72	1354,46
1012,14	1406,46
1012,56	1546,46
1012,99	1204,46
1013,41	1436,46
1013,83	1328,46
1014,25	1380,96
1014,68	1385,96
1015,10	1073,46
1015,52	1574,46
1015,94	971,96
1016,37	1526,46
1016,79	1197,96
1017,21	1294,46
1017,63	1104,96
1018,05	1363,96
1018,48	1229,96
1018,90	1219,96
1019,32	1263,96
1019,74	977,46
1020,16	2078,46
1020,59	1543,46
1021,01	1410,96
1021,43	1189,96
1021,85	1305,46
1022,27	1345,46
1022,69	1350,96
1023,12	1422,96
1023,54	1292,96
1023,96	2196,96
1024,38	1570,96
1024,80	1496,46
1025,22	1387,46
1025,65	1338,46
1026,07	1406,46
1026,49	1445,46
1026,91	1159,46
1027,33	1057,46
1027,75	1866,96
1028,17	1433,96
1028,60	1405,96
1029,02	1273,96
1029,44	1368,46
1029,86	1187,46
1030,28	1817,46
1030,70	1316,46
1031,12	1226,46
1031,54	1378,46
1031,97	1696,46
1032,39	1078,46
1032,81	1357,96
1033,23	1471,46
1033,65	1260,46
1034,07	1464,96
1034,49	1162,46
1034,91	1138,96
1035,33	1360,96
1035,75	1483,96
1036,18	1189,46
1036,60	1724,96
1037,02	1174,96
1037,44	1240,46
1037,86	1339,46
1038,28	1001,96
1038,70	1426,46
1039,12	1532,96
1039,54	1447,46
1039,96	1605,96
1040,38	1674,46
1040,80	1296,96
1041,22	1251,96
1041,64	1382,46
1042,06	1226,46
1042,48	1726,46
1042,90	1636,46
1043,32	1513,46
1043,74	1500,96
1044,17	1311,96
1044,59	1529,96
1045,01	1157,46
1045,43	1309,96
1045,85	1208,96
1046,27	1073,96
1046,69	1347,96
1047,11	1473,46
1047,53	1136,46
1047,95	1411,96
1048,37	1522,96
1048,79	1134,46
1049,21	1535,96
1049,63	1477,96
1050,05	1498,96
1050,47	1251,46
1050,89	1259,46
1051,31	1441,46
1051,72	1485,46
1052,14	1641,46
1052,56	1615,46
1052,98	1318,96
1053,40	1526,46
1053,82	920,46
1054,24	1286,46
1054,66	976,96
1055,08	1232,46
1055,50	1157,96
1055,92	1311,46
1056,34	1446,96
1056,76	1794,96
1057,18	1597,96
1057,60	1528,96
1058,02	1354,46
1058,44	2300,46
1058,86	1095,96
1059,28	1426,96
1059,69	1496,46
1060,11	1241,46
1060,53	1256,96
1060,95	1179,46
1061,37	1515,96
1061,79	1369,96
1062,21	1228,96
1062,63	1483,96
1063,05	1658,46
1063,47	1374,96
1063,88	1292,96
1064,30	1172,96
1064,72	1519,96
1065,14	1507,96
1065,56	1245,46
1065,98	1142,96
1066,40	1006,46
1066,82	1526,46
1067,23	1375,96
1067,65	1286,96
1068,07	1387,46
1068,49	1255,46
1068,91	1693,46
1069,33	1379,46
1069,75	1210,96
1070,16	1076,96
1070,58	1553,96
1071,00	1565,46
1071,42	1578,96
1071,84	1282,46
1072,26	1461,46
1072,67	1236,46
1073,09	1154,96
1073,51	1064,46
1073,93	1464,46
1074,35	1212,96
1074,77	1038,96
1075,18	1244,96
1075,60	1203,46
1076,02	1319,46
1076,44	1191,46
1076,86	1172,96
1077,27	1313,96
1077,69	1524,96
1078,11	1221,46
1078,53	1506,46
1078,94	1692,46
1079,36	934,46
1079,78	1369,96
1080,20	1244,46
1080,62	1307,46
1081,03	1479,96
1081,45	1272,46
1081,87	1197,96
1082,29	1341,46
1082,70	1269,96
1083,12	1232,46
1083,54	1290,46
1083,96	1321,96
1084,37	1543,96
1084,79	1313,96
1085,21	1222,46
1085,63	1582,96
1086,04	1146,96
1086,46	1210,46
1086,88	1392,46
1087,30	1048,46
1087,71	1453,96
1088,13	9928,46
1088,55	1385,46
1088,96	1169,46
1089,38	1215,46
1089,80	1215,46
1090,22	1539,46
1090,63	1305,46
1091,05	1077,96
1091,47	1277,46
1091,88	1205,46
1092,30	1111,46
1092,72	1231,46
1093,13	1232,96
1093,55	1282,46
1093,97	1224,46
1094,38	1342,46
1094,80	1210,96
1095,22	1323,46
1095,63	1122,96
1096,05	1258,96
1096,47	1336,96
1096,88	1106,46
1097,30	1282,96
1097,72	1182,96
1098,13	1426,96
1098,55	1406,96
1098,97	1422,46
1099,38	1246,96
1099,80	1239,46
1100,21	1110,46
1100,63	1210,46
1101,05	1189,96
1101,46	1307,46
1101,88	1026,96
1102,30	1176,46
1102,71	1253,96
1103,13	1232,46
1103,54	1328,96
1103,96	1232,46
1104,38	1640,46
1104,79	828,46
1105,21	1305,96
1105,62	1244,96
1106,04	1102,96
1106,46	1201,46
1106,87	893,46
1107,29	1055,46
1107,70	1414,46
1108,12	960,46
1108,54	1400,46
1108,95	1351,96
1109,37	1297,96
1109,78	935,46
1110,20	1124,46
1110,61	949,96
1111,03	949,96
1111,44	949,96
1111,86	949,96
1112,28	949,96
1112,69	949,96
1113,11	949,96
1113,52	949,96
1113,94	949,96
1114,35	949,96
1114,77	949,96
1115,18	949,96
1115,60	949,96
1116,01	949,96
1116,43	949,96
1116,84	949,96
1117,26	949,96
1117,67	949,96
1118,09	949,96
1118,50	949,96
1118,92	949,96
>>>>>End Processed Spectral Data<<<<<
