SpectraSuite Data File
++++++++++++++++++++++++++++++++++++
Date: Wed Nov 27 15:55:18 EET 2013
User: OO Maya
Dark Spectrum Present: No
Reference Spectrum Present: No
Number of Sampled Component Spectra: 1
Spectrometers: MAYP11278
Integration Time (usec): 130000 (MAYP11278)
Spectra Averaged: 10 (MAYP11278)
Boxcar Smoothing: 0 (MAYP11278)
Correct for Electrical Dark: No (MAYP11278)
Strobe/Lamp Enabled: No (MAYP11278)
Correct for Detector Non-linearity: No (MAYP11278)
Correct for Stray Light: No (MAYP11278)
Number of Pixels in Processed Spectrum: 2068
>>>>>Begin Processed Spectral Data<<<<<
188,05	2279,70
188,53	2206,30
189,01	2172,60
189,49	2175,60
189,96	2274,20
190,44	2278,60
190,92	2277,50
191,40	2280,30
191,88	2285,40
192,36	2277,80
192,83	2275,00
193,31	2271,80
193,79	2275,80
194,27	2275,70
194,75	2281,60
195,23	2279,00
195,70	2285,40
196,18	2275,00
196,66	2278,90
197,14	2299,60
197,62	2274,90
198,09	2270,60
198,57	2272,30
199,05	2271,40
199,53	2282,40
200,01	2284,40
200,48	2275,60
200,96	2275,00
201,44	2279,70
201,92	2282,50
202,39	2280,90
202,87	2274,10
203,35	2283,80
203,83	2272,50
204,31	2283,20
204,78	2288,40
205,26	2276,00
205,74	2275,00
206,22	2292,70
206,69	2276,70
207,17	2282,30
207,65	2296,50
208,13	2280,00
208,60	2285,20
209,08	2278,30
209,56	2285,20
210,04	2282,70
210,51	2279,20
210,99	2276,60
211,47	2285,50
211,94	2280,20
212,42	2277,90
212,90	2293,60
213,38	2286,50
213,85	2275,90
214,33	2295,40
214,81	2280,90
215,29	2295,40
215,76	2281,80
216,24	2288,00
216,72	2287,40
217,19	2281,40
217,67	2276,50
218,15	2279,90
218,62	2290,10
219,10	2271,90
219,58	2279,80
220,05	2274,50
220,53	2279,10
221,01	2315,50
221,49	2277,10
221,96	2289,00
222,44	2279,10
222,92	2289,00
223,39	2280,40
223,87	2288,70
224,35	2284,90
224,82	2280,60
225,30	2272,20
225,78	2280,10
226,25	2275,00
226,73	2284,60
227,21	2291,30
227,68	2282,40
228,16	2287,10
228,63	2288,40
229,11	2286,60
229,59	2279,10
230,06	2282,90
230,54	2276,10
231,02	2290,50
231,49	2293,50
231,97	2282,90
232,45	2281,60
232,92	2274,70
233,40	2282,10
233,87	2287,50
234,35	2313,00
234,83	2282,90
235,30	2278,40
235,78	2283,80
236,25	2275,40
236,73	2290,60
237,21	2300,40
237,68	2279,90
238,16	2281,60
238,63	2288,10
239,11	2283,60
239,59	2278,90
240,06	2275,50
240,54	2286,80
241,01	2293,70
241,49	2284,90
241,96	2277,80
242,44	2291,20
242,92	2293,50
243,39	2273,00
243,87	2277,10
244,34	2290,60
244,82	2294,80
245,29	2283,40
245,77	2291,90
246,24	2294,40
246,72	2279,10
247,20	2280,90
247,67	2280,90
248,15	2280,80
248,62	2288,10
249,10	2266,20
249,57	2285,60
250,05	2285,50
250,52	2288,50
251,00	2292,60
251,47	2288,10
251,95	2299,50
252,42	2288,50
252,90	2279,00
253,37	2290,90
253,85	2287,10
254,32	2280,00
254,80	2281,90
255,27	2289,90
255,75	2289,50
256,22	2279,20
256,70	2282,40
257,17	2287,90
257,65	2291,30
258,12	2308,30
258,60	2284,30
259,07	2280,80
259,55	2286,20
260,02	2289,20
260,50	2297,90
260,97	2279,10
261,45	2283,40
261,92	2292,10
262,40	2276,60
262,87	2283,10
263,35	2285,20
263,82	2275,70
264,30	2292,30
264,77	2290,50
265,25	2277,70
265,72	2288,60
266,19	2287,20
266,67	2287,50
267,14	2279,20
267,62	2279,50
268,09	2288,00
268,57	2286,70
269,04	2270,10
269,51	2275,20
269,99	2277,30
270,46	2285,90
270,94	2296,00
271,41	2283,30
271,89	2283,70
272,36	2278,40
272,83	2276,00
273,31	2268,20
273,78	2279,80
274,26	2317,40
274,73	2286,10
275,20	2292,60
275,68	2279,80
276,15	2282,70
276,63	2289,70
277,10	2292,60
277,57	2275,00
278,05	2279,70
278,52	2275,60
279,00	2321,60
279,47	2278,50
279,94	2281,80
280,42	2315,50
280,89	2290,10
281,36	2311,10
281,84	2277,70
282,31	2291,90
282,78	2279,60
283,26	2278,60
283,73	2289,10
284,21	2279,70
284,68	2276,30
285,15	2288,30
285,63	2284,40
286,10	2290,10
286,57	2284,70
287,05	2277,80
287,52	2285,30
287,99	2296,20
288,47	2285,80
288,94	2288,10
289,41	2271,40
289,89	2296,40
290,36	2274,00
290,83	2289,00
291,30	2278,20
291,78	2288,90
292,25	2300,10
292,72	2275,90
293,20	2296,00
293,67	2281,40
294,14	2282,20
294,62	2283,00
295,09	2274,70
295,56	2284,00
296,03	2286,10
296,51	2299,30
296,98	2293,70
297,45	2288,10
297,93	2286,60
298,40	2288,40
298,87	2281,40
299,34	2295,60
299,82	2281,40
300,29	2289,80
300,76	2281,60
301,23	2293,20
301,71	2289,10
302,18	2292,00
302,65	2276,70
303,12	2291,70
303,60	2290,30
304,07	2280,40
304,54	2280,30
305,01	2274,90
305,49	2289,30
305,96	2286,90
306,43	2286,70
306,90	2287,70
307,38	2281,40
307,85	2279,50
308,32	2285,70
308,79	2280,40
309,27	2292,80
309,74	2290,10
310,21	2284,60
310,68	2286,00
311,15	2287,30
311,63	2280,80
312,10	2293,00
312,57	2283,20
313,04	2300,80
313,51	2276,60
313,99	2282,40
314,46	2286,20
314,93	2281,90
315,40	2283,40
315,87	2293,10
316,34	2289,40
316,82	2288,00
317,29	2288,10
317,76	2284,30
318,23	2307,80
318,70	2284,50
319,17	2283,40
319,65	2275,90
320,12	2290,40
320,59	2294,80
321,06	2290,00
321,53	2283,00
322,00	2271,90
322,48	2275,00
322,95	2299,60
323,42	2279,90
323,89	2303,80
324,36	2274,40
324,83	2281,50
325,30	2281,60
325,78	2280,90
326,25	2282,70
326,72	2282,10
327,19	2289,90
327,66	2288,50
328,13	2287,10
328,60	2283,10
329,07	2281,90
329,54	2287,20
330,02	2280,90
330,49	2280,80
330,96	2290,10
331,43	2285,30
331,90	2304,80
332,37	2277,40
332,84	2301,70
333,31	2291,30
333,78	2288,30
334,25	2296,70
334,72	2288,20
335,20	2287,80
335,67	2313,50
336,14	2277,50
336,61	2283,40
337,08	2281,80
337,55	2288,00
338,02	2278,10
338,49	2282,00
338,96	2297,70
339,43	2294,20
339,90	2277,20
340,37	2283,50
340,84	2276,10
341,31	2287,70
341,78	2292,70
342,25	2280,90
342,72	2284,60
343,19	2292,90
343,67	2288,10
344,14	2279,60
344,61	2284,80
345,08	2279,80
345,55	2280,20
346,02	2287,20
346,49	2279,20
346,96	2280,70
347,43	2296,80
347,90	2281,90
348,37	2291,40
348,84	2285,10
349,31	2273,90
349,78	2280,10
350,25	2291,90
350,72	2283,50
351,19	2281,30
351,66	2283,00
352,13	2298,10
352,60	2290,50
353,07	2282,60
353,54	2285,00
354,01	2294,40
354,48	2291,10
354,94	2288,00
355,41	2287,20
355,88	2298,80
356,35	2279,60
356,82	2297,00
357,29	2281,60
357,76	2303,20
358,23	2291,80
358,70	2279,60
359,17	2272,80
359,64	2281,50
360,11	2286,60
360,58	2292,40
361,05	2293,90
361,52	2282,60
361,99	2285,40
362,46	2286,20
362,93	2285,30
363,39	2283,50
363,86	2302,40
364,33	2286,90
364,80	2280,30
365,27	2288,00
365,74	2282,00
366,21	2276,10
366,68	2304,00
367,15	2282,40
367,62	2446,80
368,09	2267,30
368,55	2276,40
369,02	2291,00
369,49	2280,50
369,96	2290,50
370,43	2282,10
370,90	2279,60
371,37	2284,90
371,84	2286,30
372,31	2279,60
372,77	2273,30
373,24	2286,30
373,71	2282,90
374,18	2277,80
374,65	2278,10
375,12	2286,10
375,59	2272,90
376,05	2293,10
376,52	2277,40
376,99	2275,50
377,46	2276,70
377,93	2287,70
378,40	2284,00
378,86	2286,40
379,33	2281,80
379,80	2285,00
380,27	2288,90
380,74	2292,90
381,21	2284,50
381,67	2296,60
382,14	2299,80
382,61	2272,30
383,08	2284,80
383,55	2282,10
384,02	2288,80
384,48	2289,20
384,95	2327,00
385,42	2282,10
385,89	2277,90
386,36	2288,30
386,82	2298,80
387,29	2279,70
387,76	2279,40
388,23	2289,50
388,69	2285,20
389,16	2294,80
389,63	2275,60
390,10	2289,40
390,57	2285,80
391,03	2284,90
391,50	2284,20
391,97	2286,50
392,44	2287,30
392,90	2281,60
393,37	2282,40
393,84	2302,80
394,31	2284,90
394,77	2290,20
395,24	2278,20
395,71	2288,70
396,18	2326,50
396,64	2275,60
397,11	2285,20
397,58	2285,70
398,05	2273,00
398,51	2283,20
398,98	2280,90
399,45	2278,00
399,92	2294,60
400,38	2274,30
400,85	2280,80
401,32	2277,00
401,78	2287,30
402,25	2282,70
402,72	2283,60
403,18	2275,00
403,65	2295,20
404,12	2287,40
404,59	2294,50
405,05	2298,00
405,52	2294,00
405,99	2278,30
406,45	2289,80
406,92	2288,20
407,39	2304,30
407,85	2283,90
408,32	2288,80
408,79	2285,70
409,25	2277,30
409,72	2290,40
410,19	2275,90
410,65	2289,70
411,12	2277,30
411,59	2296,40
412,05	2277,30
412,52	2270,50
412,99	2286,90
413,45	2281,50
413,92	2287,20
414,39	2289,00
414,85	2300,30
415,32	2277,60
415,78	2300,10
416,25	2286,60
416,72	2286,20
417,18	2300,40
417,65	2287,40
418,12	2282,30
418,58	2289,10
419,05	2283,30
419,51	2290,90
419,98	2281,50
420,45	2288,40
420,91	2277,30
421,38	2285,40
421,84	2280,90
422,31	2290,70
422,78	2278,60
423,24	2281,50
423,71	2287,30
424,17	2291,10
424,64	2283,80
425,11	2293,30
425,57	2283,40
426,04	2293,30
426,50	2287,80
426,97	2292,80
427,43	2287,80
427,90	2290,20
428,37	2278,50
428,83	2293,40
429,30	2285,90
429,76	2284,50
430,23	2283,80
430,69	2307,70
431,16	2276,70
431,62	2280,10
432,09	2295,20
432,55	2296,70
433,02	2281,30
433,48	2279,40
433,95	2286,20
434,42	2278,70
434,88	2289,60
435,35	2277,00
435,81	2288,60
436,28	2279,40
436,74	2273,20
437,21	2288,50
437,67	2284,90
438,14	2285,40
438,60	2279,60
439,07	2280,00
439,53	2319,20
440,00	2288,20
440,46	2288,30
440,93	2293,50
441,39	2276,50
441,86	2280,60
442,32	2302,90
442,79	2274,70
443,25	2287,00
443,72	2283,50
444,18	2272,40
444,64	2301,30
445,11	2286,40
445,57	2286,40
446,04	2286,00
446,50	2284,60
446,97	2281,50
447,43	2289,40
447,90	2278,10
448,36	2276,10
448,83	2288,90
449,29	2288,70
449,75	2281,80
450,22	2279,50
450,68	2277,00
451,15	2283,60
451,61	2283,60
452,08	2287,20
452,54	2280,80
453,00	2291,80
453,47	2281,00
453,93	2282,60
454,40	2286,40
454,86	2285,00
455,32	2277,20
455,79	2287,10
456,25	2291,80
456,72	2278,30
457,18	2292,20
457,64	2281,50
458,11	2288,50
458,57	2278,40
459,04	2285,10
459,50	2283,30
459,96	2286,10
460,43	2280,80
460,89	2276,40
461,36	2299,70
461,82	2294,30
462,28	2280,50
462,75	2278,20
463,21	2289,00
463,67	2281,50
464,14	2283,50
464,60	2284,30
465,06	2277,20
465,53	2280,20
465,99	2291,40
466,45	2285,50
466,92	2287,70
467,38	2286,10
467,84	2280,90
468,31	2285,50
468,77	2289,80
469,23	2281,40
469,70	2279,10
470,16	2284,80
470,62	2283,20
471,09	2280,90
471,55	2280,70
472,01	2277,00
472,48	2281,50
472,94	2279,30
473,40	2296,00
473,87	2290,70
474,33	2280,90
474,79	2282,40
475,25	2271,50
475,72	2287,50
476,18	2283,90
476,64	2286,60
477,11	2286,10
477,57	2284,40
478,03	2297,80
478,49	2284,10
478,96	2294,20
479,42	2279,50
479,88	2297,50
480,35	2287,60
480,81	2284,50
481,27	2280,90
481,73	2281,40
482,20	2285,70
482,66	2278,60
483,12	2287,10
483,58	2276,20
484,05	2283,50
484,51	2297,90
484,97	2287,80
485,43	2283,30
485,89	2270,10
486,36	2282,70
486,82	2274,40
487,28	2285,80
487,74	2278,00
488,21	2277,00
488,67	2277,90
489,13	2288,10
489,59	2284,80
490,05	2293,00
490,52	2274,80
490,98	2284,00
491,44	2271,40
491,90	2277,20
492,36	2273,40
492,83	2288,30
493,29	2287,00
493,75	2280,00
494,21	2278,60
494,67	2278,00
495,14	2278,60
495,60	2278,50
496,06	2283,00
496,52	2278,20
496,98	2282,20
497,44	2300,40
497,91	2290,60
498,37	2281,20
498,83	2282,70
499,29	2279,80
499,75	2303,90
500,21	2283,90
500,67	2283,30
501,14	2287,30
501,60	2280,70
502,06	2288,50
502,52	2284,70
502,98	2279,00
503,44	2284,50
503,90	2286,30
504,37	2278,50
504,83	2287,60
505,29	2288,20
505,75	2277,90
506,21	2281,00
506,67	2290,90
507,13	2280,10
507,59	2284,90
508,05	2286,20
508,51	2278,30
508,98	2277,20
509,44	2272,10
509,90	2276,20
510,36	2280,70
510,82	2278,10
511,28	2289,40
511,74	2292,80
512,20	2275,80
512,66	2271,20
513,12	2277,30
513,58	2291,20
514,04	2270,90
514,51	2289,50
514,97	2295,70
515,43	2270,40
515,89	2282,80
516,35	2292,20
516,81	2291,40
517,27	2302,70
517,73	2293,40
518,19	2282,60
518,65	2312,50
519,11	2282,60
519,57	2277,30
520,03	2279,10
520,49	2281,80
520,95	2285,80
521,41	2286,60
521,87	2287,60
522,33	2285,40
522,79	2271,30
523,25	2299,90
523,71	2292,50
524,17	2280,50
524,63	2292,00
525,09	2288,20
525,55	2291,10
526,01	2294,80
526,47	2286,20
526,93	2285,30
527,39	2280,20
527,85	2280,00
528,31	2288,30
528,77	2289,40
529,23	2277,30
529,69	2274,20
530,15	2287,80
530,61	2286,70
531,07	2274,50
531,53	2292,10
531,99	2283,40
532,45	2283,60
532,91	2285,10
533,37	2289,70
533,83	2281,00
534,29	2276,90
534,75	2281,20
535,21	2278,10
535,67	2284,40
536,12	2280,50
536,58	2287,00
537,04	2276,60
537,50	2288,30
537,96	2285,10
538,42	2281,80
538,88	2300,70
539,34	2288,10
539,80	2333,00
540,26	2274,20
540,72	2299,70
541,18	2285,30
541,63	2275,10
542,09	2290,10
542,55	2281,90
543,01	2279,80
543,47	2308,40
543,93	2275,20
544,39	2297,80
544,85	2286,10
545,31	2281,10
545,76	2279,70
546,22	2292,80
546,68	2282,00
547,14	2286,20
547,60	2286,60
548,06	2283,30
548,52	2280,50
548,98	2281,00
549,43	2278,70
549,89	2304,30
550,35	2282,90
550,81	2275,40
551,27	2284,70
551,73	2283,20
552,19	2299,20
552,64	2287,50
553,10	2278,70
553,56	2288,70
554,02	2281,60
554,48	2276,80
554,93	2286,20
555,39	2286,00
555,85	2298,50
556,31	2281,60
556,77	2292,90
557,23	2274,20
557,68	2281,40
558,14	2301,00
558,60	2279,40
559,06	2279,50
559,52	2273,90
559,97	2278,00
560,43	2277,10
560,89	2282,80
561,35	2283,90
561,81	2280,10
562,26	2278,60
562,72	2280,30
563,18	2282,40
563,64	2288,10
564,09	2277,50
564,55	2281,20
565,01	2274,60
565,47	2277,10
565,92	2282,90
566,38	2288,10
566,84	2283,10
567,30	2274,60
567,75	2288,70
568,21	2293,80
568,67	2279,50
569,13	2282,30
569,58	2290,50
570,04	2283,90
570,50	2281,80
570,96	2289,00
571,41	2287,20
571,87	2281,10
572,33	2287,40
572,78	2289,60
573,24	2275,90
573,70	2277,40
574,16	2283,20
574,61	2294,40
575,07	2290,60
575,53	2273,70
575,98	2284,50
576,44	2270,90
576,90	2294,00
577,36	2280,50
577,81	2281,30
578,27	2274,30
578,73	2296,60
579,18	2285,90
579,64	2275,30
580,10	2287,10
580,55	2283,20
581,01	2281,90
581,47	2287,30
581,92	2285,60
582,38	2283,30
582,84	2273,00
583,29	2278,90
583,75	2283,30
584,21	2283,00
584,66	2286,80
585,12	2279,10
585,57	2305,80
586,03	2278,90
586,49	2282,50
586,94	2283,20
587,40	2284,10
587,86	2289,50
588,31	2274,90
588,77	2287,30
589,22	2281,70
589,68	2279,20
590,14	2288,50
590,59	2288,10
591,05	2279,10
591,51	2278,00
591,96	2292,40
592,42	2281,70
592,87	2286,20
593,33	2281,30
593,78	2289,50
594,24	2287,80
594,70	2280,80
595,15	2294,20
595,61	2278,50
596,06	2279,60
596,52	2294,60
596,98	2293,30
597,43	2295,40
597,89	2281,80
598,34	2271,20
598,80	2284,40
599,25	2291,70
599,71	2278,80
600,16	2289,10
600,62	2294,40
601,08	2289,40
601,53	2291,20
601,99	2269,90
602,44	2308,90
602,90	2281,80
603,35	2277,30
603,81	2275,00
604,26	2269,20
604,72	2287,60
605,17	2280,80
605,63	2284,30
606,08	2280,10
606,54	2272,20
606,99	2282,40
607,45	2280,00
607,90	2283,70
608,36	2289,10
608,81	2284,40
609,27	2305,00
609,72	2292,90
610,18	2281,40
610,63	2278,80
611,09	2287,30
611,54	2274,90
612,00	2296,90
612,45	2286,10
612,91	2279,80
613,36	2312,80
613,82	2275,30
614,27	2271,50
614,73	2274,20
615,18	2275,90
615,64	2282,70
616,09	2283,40
616,54	2279,10
617,00	2281,40
617,45	2276,10
617,91	2287,40
618,36	2280,20
618,82	2280,60
619,27	2279,70
619,72	2290,70
620,18	2279,20
620,63	2287,90
621,09	2292,40
621,54	2284,40
622,00	2287,20
622,45	2297,60
622,90	2293,50
623,36	2276,10
623,81	2278,60
624,27	2288,50
624,72	2276,30
625,17	2278,80
625,63	2285,30
626,08	2276,70
626,54	2280,40
626,99	2283,00
627,44	2280,00
627,90	2287,80
628,35	2288,70
628,81	2266,80
629,26	2282,90
629,71	2286,70
630,17	2275,50
630,62	2284,60
631,07	2283,00
631,53	2290,20
631,98	2286,90
632,43	2291,50
632,89	2276,80
633,34	2282,10
633,79	2277,10
634,25	2278,90
634,70	2274,00
635,15	2278,40
635,61	2274,50
636,06	2271,70
636,51	2284,90
636,97	2278,00
637,42	2274,80
637,87	2288,00
638,33	2292,20
638,78	2275,50
639,23	2278,70
639,69	2275,90
640,14	2271,10
640,59	2288,70
641,05	2291,00
641,50	2270,40
641,95	2282,60
642,40	2281,30
642,86	2271,70
643,31	2276,70
643,76	2287,70
644,22	2276,50
644,67	2276,10
645,12	2279,80
645,57	2275,30
646,03	2282,60
646,48	2279,70
646,93	2288,10
647,38	2286,50
647,84	2281,90
648,29	2281,80
648,74	2275,40
649,19	2292,10
649,65	2288,50
650,10	2318,50
650,55	2270,40
651,00	2277,40
651,46	2278,60
651,91	2279,60
652,36	2275,60
652,81	2278,50
653,27	2279,10
653,72	2274,40
654,17	2284,20
654,62	2286,30
655,07	2279,00
655,53	2271,20
655,98	2291,90
656,43	2277,20
656,88	2283,90
657,33	2289,20
657,79	2286,70
658,24	2276,10
658,69	2282,10
659,14	2275,60
659,59	2324,00
660,05	2273,30
660,50	2289,30
660,95	2284,00
661,40	2273,70
661,85	2282,60
662,30	2277,90
662,76	2268,50
663,21	2284,80
663,66	2278,30
664,11	2284,20
664,56	2279,40
665,01	2273,60
665,47	2281,20
665,92	2274,50
666,37	2284,20
666,82	2286,60
667,27	2307,60
667,72	2293,30
668,17	2275,30
668,62	2285,50
669,08	2276,00
669,53	2304,30
669,98	2266,90
670,43	2273,40
670,88	2293,40
671,33	2283,60
671,78	2297,60
672,23	2304,20
672,69	2285,00
673,14	2284,60
673,59	2292,70
674,04	2310,70
674,49	2284,40
674,94	2285,10
675,39	2270,40
675,84	2269,30
676,29	2279,00
676,74	2280,60
677,19	2280,80
677,64	2281,90
678,10	2303,90
678,55	2278,70
679,00	2278,90
679,45	2284,40
679,90	2278,70
680,35	2276,90
680,80	2277,90
681,25	2268,90
681,70	2268,60
682,15	2277,40
682,60	2283,10
683,05	2287,70
683,50	2288,60
683,95	2282,40
684,40	2291,80
684,85	2288,40
685,30	2284,30
685,75	2283,40
686,20	2281,20
686,65	2273,80
687,10	2281,10
687,55	2279,90
688,00	2283,20
688,45	2284,90
688,90	2303,90
689,35	2291,70
689,80	2270,20
690,25	2282,80
690,70	2277,70
691,15	2270,50
691,60	2281,40
692,05	2269,20
692,50	2285,20
692,95	2277,30
693,40	2287,50
693,85	2288,10
694,30	2282,30
694,75	2286,70
695,20	2325,70
695,65	2280,60
696,10	2284,00
696,55	2294,60
697,00	2279,40
697,45	2278,10
697,90	2284,90
698,35	2275,50
698,80	2285,70
699,24	2285,20
699,69	2277,10
700,14	2278,50
700,59	2287,80
701,04	2287,40
701,49	2317,70
701,94	2270,70
702,39	2296,60
702,84	2276,20
703,29	2277,10
703,74	2282,80
704,19	2277,80
704,63	2277,20
705,08	2290,50
705,53	2287,80
705,98	2288,80
706,43	2271,60
706,88	2288,40
707,33	2283,10
707,78	2278,60
708,22	2281,80
708,67	2287,90
709,12	2285,10
709,57	2280,40
710,02	2280,80
710,47	2278,80
710,92	2276,70
711,37	2285,70
711,81	2282,70
712,26	2281,80
712,71	2274,80
713,16	2299,70
713,61	2280,80
714,06	2281,20
714,50	2297,40
714,95	2289,90
715,40	2282,40
715,85	2283,80
716,30	2275,90
716,75	2275,30
717,19	2277,10
717,64	2269,70
718,09	2284,90
718,54	2295,40
718,99	2272,10
719,43	2275,40
719,88	2284,20
720,33	2280,40
720,78	2274,90
721,23	2284,90
721,67	2276,10
722,12	2284,10
722,57	2279,30
723,02	2271,60
723,47	2270,50
723,91	2282,80
724,36	2271,50
724,81	2286,10
725,26	2273,10
725,70	2280,60
726,15	2278,90
726,60	2283,90
727,05	2297,70
727,49	2273,30
727,94	2293,00
728,39	2288,50
728,84	2275,90
729,28	2290,60
729,73	2276,40
730,18	2289,60
730,63	2270,40
731,07	2281,80
731,52	2285,30
731,97	2282,00
732,41	2287,00
732,86	2275,70
733,31	2285,20
733,76	2284,50
734,20	2274,80
734,65	2292,30
735,10	2284,30
735,54	2281,80
735,99	2306,00
736,44	2277,10
736,89	2281,30
737,33	2286,10
737,78	2285,50
738,23	2280,50
738,67	2278,00
739,12	2282,50
739,57	2273,30
740,01	2292,70
740,46	2285,70
740,91	2274,90
741,35	2283,20
741,80	2285,40
742,25	2279,60
742,69	2282,90
743,14	2275,70
743,59	2275,10
744,03	2279,00
744,48	2295,80
744,92	2291,00
745,37	2289,50
745,82	2287,50
746,26	2296,20
746,71	2265,30
747,16	2274,00
747,60	2273,50
748,05	2282,80
748,49	2279,10
748,94	2277,20
749,39	2284,40
749,83	2313,60
750,28	2281,00
750,73	2278,90
751,17	2271,20
751,62	2278,90
752,06	2279,70
752,51	2275,90
752,95	2296,70
753,40	2276,10
753,85	2281,60
754,29	2269,70
754,74	2276,70
755,18	2272,90
755,63	2279,90
756,07	2281,20
756,52	2292,10
756,97	2280,50
757,41	2293,60
757,86	2284,60
758,30	2278,40
758,75	2278,90
759,19	2279,10
759,64	2273,40
760,08	2281,10
760,53	2285,90
760,98	2283,00
761,42	2286,80
761,87	2290,10
762,31	2273,90
762,76	2276,10
763,20	2279,50
763,65	2286,20
764,09	2284,60
764,54	2273,40
764,98	2278,30
765,43	2280,80
765,87	2274,80
766,32	2270,60
766,76	2273,70
767,21	2285,30
767,65	2281,50
768,10	2280,50
768,54	2284,30
768,99	2277,90
769,43	2296,30
769,88	2275,70
770,32	2282,10
770,77	2276,00
771,21	2271,60
771,65	2286,80
772,10	2285,30
772,54	2284,90
772,99	2271,60
773,43	2279,30
773,88	2279,00
774,32	2268,50
774,77	2283,40
775,21	2274,30
775,65	2286,40
776,10	2283,40
776,54	2273,40
776,99	2277,40
777,43	2280,40
777,88	2284,40
778,32	2283,70
778,76	2279,00
779,21	2284,40
779,65	2306,70
780,10	2291,80
780,54	2285,00
780,99	2292,30
781,43	2284,20
781,87	2278,10
782,32	2282,00
782,76	2275,30
783,20	2280,00
783,65	2285,90
784,09	2287,10
784,54	2281,90
784,98	2282,80
785,42	2283,20
785,87	2275,80
786,31	2287,00
786,75	2290,00
787,20	2290,10
787,64	2271,40
788,09	2274,30
788,53	2282,10
788,97	2274,00
789,42	2277,10
789,86	2275,40
790,30	2280,90
790,75	2273,00
791,19	2277,80
791,63	2294,40
792,08	2277,20
792,52	2280,70
792,96	2277,40
793,41	2320,80
793,85	2291,60
794,29	2283,10
794,74	2282,50
795,18	2282,80
795,62	2272,10
796,06	2286,70
796,51	2280,90
796,95	2280,40
797,39	2280,30
797,84	2272,00
798,28	2283,60
798,72	2288,70
799,16	2283,70
799,61	2275,20
800,05	2295,30
800,49	2284,10
800,94	2278,10
801,38	2285,30
801,82	2281,20
802,26	2276,50
802,71	2290,30
803,15	2299,70
803,59	2287,00
804,03	2285,70
804,48	2282,90
804,92	2277,10
805,36	2300,30
805,80	2303,20
806,25	2295,70
806,69	2287,80
807,13	2295,70
807,57	2281,30
808,01	2283,10
808,46	2275,20
808,90	2285,30
809,34	2280,00
809,78	2280,10
810,23	2272,30
810,67	2285,60
811,11	2293,50
811,55	2316,20
811,99	2280,70
812,44	2275,60
812,88	2288,40
813,32	2295,90
813,76	2286,60
814,20	2284,00
814,64	2290,20
815,09	2290,60
815,53	2282,10
815,97	2276,90
816,41	2275,70
816,85	2275,40
817,29	2286,70
817,74	2283,80
818,18	2290,10
818,62	2281,30
819,06	2289,90
819,50	2290,70
819,94	2279,90
820,39	2281,90
820,83	2276,10
821,27	2283,80
821,71	2277,20
822,15	2293,90
822,59	2275,00
823,03	2282,30
823,47	2284,20
823,92	2274,20
824,36	2279,10
824,80	2281,40
825,24	2284,10
825,68	2284,60
826,12	2275,70
826,56	2278,70
827,00	2264,70
827,44	2278,50
827,88	2292,70
828,33	2290,90
828,77	2277,60
829,21	2285,20
829,65	2284,90
830,09	2277,70
830,53	2296,90
830,97	2278,70
831,41	2302,40
831,85	2290,40
832,29	2287,50
832,73	2271,50
833,17	2279,30
833,61	2278,90
834,05	2292,60
834,49	2287,90
834,93	2283,90
835,37	2279,40
835,82	2294,20
836,26	2279,60
836,70	2282,60
837,14	2280,30
837,58	2294,00
838,02	2276,10
838,46	2277,00
838,90	2285,50
839,34	2280,20
839,78	2294,70
840,22	2305,30
840,66	2283,50
841,10	2295,00
841,54	2274,50
841,98	2275,80
842,42	2273,50
842,86	2281,40
843,30	2287,40
843,74	2283,70
844,18	2286,00
844,62	2283,30
845,06	2274,80
845,50	2287,70
845,94	2280,00
846,37	2287,90
846,81	2279,20
847,25	2277,30
847,69	2279,30
848,13	2276,10
848,57	2283,00
849,01	2280,60
849,45	2287,80
849,89	2292,40
850,33	2290,50
850,77	2277,50
851,21	2291,50
851,65	2273,80
852,09	2284,50
852,53	2291,50
852,97	2282,80
853,40	2276,10
853,84	2291,10
854,28	2274,40
854,72	2291,80
855,16	2272,90
855,60	2276,00
856,04	2290,20
856,48	2294,60
856,92	2281,70
857,36	2286,90
857,79	2278,70
858,23	2273,70
858,67	2292,60
859,11	2270,60
859,55	2274,60
859,99	2288,20
860,43	2279,10
860,87	2281,40
861,30	2287,20
861,74	2276,70
862,18	2280,30
862,62	2289,70
863,06	2275,40
863,50	2281,00
863,94	2289,00
864,37	2279,80
864,81	2286,30
865,25	2283,40
865,69	2270,20
866,13	2278,90
866,57	2269,10
867,00	2288,90
867,44	2275,60
867,88	2282,20
868,32	2280,50
868,76	2274,20
869,19	2284,90
869,63	2283,20
870,07	2296,70
870,51	2310,10
870,95	2277,10
871,38	2280,40
871,82	2282,50
872,26	2279,40
872,70	2283,30
873,14	2286,20
873,57	2282,10
874,01	2289,50
874,45	2292,60
874,89	2279,30
875,32	2272,90
875,76	2290,10
876,20	2267,70
876,64	2283,90
877,07	2281,00
877,51	2281,60
877,95	2285,40
878,39	2276,30
878,82	2285,30
879,26	2277,70
879,70	2299,30
880,14	2275,80
880,57	2274,20
881,01	2273,90
881,45	2282,10
881,89	2288,60
882,32	2278,30
882,76	2280,60
883,20	2280,90
883,63	2281,20
884,07	2276,30
884,51	2285,70
884,94	2282,20
885,38	2287,60
885,82	2290,70
886,26	2278,20
886,69	2274,70
887,13	2298,90
887,57	2274,10
888,00	2272,90
888,44	2285,10
888,88	2278,30
889,31	2312,10
889,75	2273,80
890,19	2287,30
890,62	2280,00
891,06	2287,10
891,50	2290,30
891,93	2271,80
892,37	2278,80
892,81	2279,40
893,24	2273,00
893,68	2277,10
894,11	2285,80
894,55	2276,10
894,99	2286,00
895,42	2276,90
895,86	2277,20
896,30	2283,60
896,73	2283,90
897,17	2274,40
897,60	2272,20
898,04	2277,50
898,48	2280,80
898,91	2292,70
899,35	2278,30
899,78	2278,20
900,22	2276,70
900,66	2288,20
901,09	2287,60
901,53	2278,70
901,96	2300,80
902,40	2299,40
902,84	2275,10
903,27	2282,00
903,71	2298,00
904,14	2273,30
904,58	2285,50
905,01	2279,90
905,45	2276,00
905,88	2277,60
906,32	2293,90
906,76	2281,40
907,19	2290,60
907,63	2282,00
908,06	2284,20
908,50	2289,30
908,93	2299,10
909,37	2278,80
909,80	2270,20
910,24	2284,80
910,67	2285,00
911,11	2276,70
911,54	2276,70
911,98	2275,20
912,41	2282,20
912,85	2282,00
913,28	2287,30
913,72	2285,70
914,15	2279,20
914,59	2271,00
915,02	2272,50
915,46	2278,60
915,89	2272,50
916,33	2288,70
916,76	2279,30
917,20	2292,50
917,63	2277,60
918,07	2289,10
918,50	2277,50
918,94	2281,70
919,37	2279,40
919,81	2283,80
920,24	2289,10
920,67	2281,70
921,11	2296,70
921,54	2289,60
921,98	2277,60
922,41	2272,50
922,85	2275,60
923,28	2283,90
923,72	2294,20
924,15	2282,60
924,58	2274,70
925,02	2286,50
925,45	2276,30
925,89	2288,10
926,32	2303,60
926,75	2279,90
927,19	2287,80
927,62	2273,20
928,06	2302,60
928,49	2284,50
928,92	2276,80
929,36	2289,80
929,79	2278,70
930,23	2281,40
930,66	2288,40
931,09	2276,40
931,53	2284,70
931,96	2271,90
932,39	2296,60
932,83	2290,80
933,26	2307,60
933,70	2278,60
934,13	2291,80
934,56	2290,80
935,00	2286,70
935,43	2284,30
935,86	2274,00
936,30	2283,40
936,73	2278,50
937,16	2286,10
937,60	2273,90
938,03	2285,60
938,46	2280,40
938,90	2281,80
939,33	2283,00
939,76	2274,50
940,19	2280,90
940,63	2290,80
941,06	2303,30
941,49	2276,30
941,93	2288,40
942,36	2273,40
942,79	2277,80
943,23	2286,10
943,66	2272,00
944,09	2270,30
944,52	2290,40
944,96	2283,00
945,39	2287,30
945,82	2281,50
946,26	2279,00
946,69	2284,80
947,12	2293,10
947,55	2281,80
947,99	2278,80
948,42	2286,60
948,85	2270,20
949,28	2270,10
949,72	2274,30
950,15	2306,00
950,58	2292,10
951,01	2280,50
951,45	2281,00
951,88	2285,40
952,31	2268,40
952,74	2288,50
953,17	2277,90
953,61	2296,50
954,04	2267,50
954,47	2272,50
954,90	2282,50
955,33	2279,50
955,77	2278,30
956,20	2288,60
956,63	2278,30
957,06	2284,90
957,49	2310,00
957,93	2273,70
958,36	2286,50
958,79	2283,50
959,22	2279,80
959,65	2278,00
960,08	2275,50
960,52	2266,70
960,95	2280,70
961,38	2287,90
961,81	2284,60
962,24	2289,00
962,67	2286,50
963,11	2275,00
963,54	2282,50
963,97	2281,00
964,40	2284,00
964,83	2281,30
965,26	2278,00
965,69	2284,40
966,13	2282,20
966,56	2278,20
966,99	2290,80
967,42	2276,50
967,85	2275,00
968,28	2292,20
968,71	2319,70
969,14	2288,20
969,57	2283,90
970,01	2284,80
970,44	2272,00
970,87	2279,00
971,30	2287,80
971,73	2277,70
972,16	2281,20
972,59	2270,10
973,02	2276,20
973,45	2276,00
973,88	2282,70
974,31	2281,40
974,74	2286,30
975,17	2284,40
975,61	2274,90
976,04	2275,40
976,47	2279,00
976,90	2280,70
977,33	2277,30
977,76	2285,80
978,19	2282,60
978,62	2277,10
979,05	2276,90
979,48	2281,10
979,91	2287,70
980,34	2286,90
980,77	2277,30
981,20	2282,80
981,63	2291,30
982,06	2282,30
982,49	2280,00
982,92	2279,70
983,35	2278,00
983,78	2276,00
984,21	2292,40
984,64	2288,80
985,07	2274,40
985,50	2270,20
985,93	2279,10
986,36	2288,40
986,79	2279,20
987,22	2276,90
987,65	2287,10
988,08	2279,30
988,51	2280,60
988,94	2283,80
989,37	2283,00
989,80	2283,20
990,23	2279,00
990,66	2283,30
991,09	2281,70
991,51	2286,80
991,94	2296,00
992,37	2278,00
992,80	2278,20
993,23	2280,30
993,66	2274,10
994,09	2278,40
994,52	2285,30
994,95	2287,10
995,38	2283,30
995,81	2284,00
996,24	2271,90
996,67	2273,50
997,09	2271,20
997,52	2293,50
997,95	2284,80
998,38	2276,60
998,81	2284,30
999,24	2273,30
999,67	2294,10
1000,10	2281,80
1000,53	2283,00
1000,95	2291,40
1001,38	2276,60
1001,81	2281,30
1002,24	2287,80
1002,67	2278,40
1003,10	2285,10
1003,53	2282,10
1003,95	2284,70
1004,38	2274,20
1004,81	2282,70
1005,24	2280,80
1005,67	2292,00
1006,10	2280,50
1006,52	2269,50
1006,95	2286,20
1007,38	2281,40
1007,81	2276,00
1008,24	2273,50
1008,67	2275,70
1009,09	2276,50
1009,52	2316,80
1009,95	2291,00
1010,38	2287,00
1010,81	2285,50
1011,23	2286,30
1011,66	2290,70
1012,09	2284,90
1012,52	2288,40
1012,95	2284,90
1013,37	2284,20
1013,80	2290,90
1014,23	2278,20
1014,66	2290,20
1015,08	2272,40
1015,51	2289,10
1015,94	2274,00
1016,37	2281,70
1016,80	2279,00
1017,22	2281,70
1017,65	2281,00
1018,08	2503,50
1018,51	2274,80
1018,93	2272,30
1019,36	2311,30
1019,79	2289,90
1020,21	2288,80
1020,64	2284,00
1021,07	2282,80
1021,50	2286,90
1021,92	2286,50
1022,35	2283,70
1022,78	2284,10
1023,21	2312,10
1023,63	2293,00
1024,06	2289,10
1024,49	2282,50
1024,91	2284,10
1025,34	2286,10
1025,77	2286,20
1026,19	2276,60
1026,62	2275,10
1027,05	2305,00
1027,47	2286,10
1027,90	2281,40
1028,33	2280,80
1028,75	2283,20
1029,18	2282,60
1029,61	2302,50
1030,03	2286,00
1030,46	2280,10
1030,89	2289,20
1031,31	2293,90
1031,74	2268,80
1032,17	2283,20
1032,59	2286,20
1033,02	2281,40
1033,45	2295,40
1033,87	2272,90
1034,30	2278,60
1034,73	2286,20
1035,15	2286,10
1035,58	2278,10
1036,00	2301,40
1036,43	2276,60
1036,86	2278,00
1037,28	2284,70
1037,71	2272,10
1038,13	2290,10
1038,56	2284,90
1038,99	2287,60
1039,41	2292,50
1039,84	2296,00
1040,26	2282,90
1040,69	2279,10
1041,11	2289,10
1041,54	2279,00
1041,97	2292,90
1042,39	2296,10
1042,82	2287,10
1043,24	2290,10
1043,67	2281,80
1044,09	2290,20
1044,52	2277,40
1044,95	2283,40
1045,37	2281,60
1045,80	2273,50
1046,22	2284,00
1046,65	2286,20
1047,07	2275,70
1047,50	2290,80
1047,92	2291,80
1048,35	2277,30
1048,77	2295,30
1049,20	2286,30
1049,62	2290,40
1050,05	2277,60
1050,47	2280,10
1050,90	2284,40
1051,32	2286,90
1051,75	2290,70
1052,17	2293,50
1052,60	2284,80
1053,02	2288,40
1053,45	2267,30
1053,87	2278,00
1054,30	2272,40
1054,72	2282,90
1055,15	2280,80
1055,57	2283,60
1056,00	2286,50
1056,42	2300,30
1056,85	2291,90
1057,27	2290,70
1057,70	2284,10
1058,12	2321,70
1058,54	2278,10
1058,97	2285,50
1059,39	2290,60
1059,82	2283,50
1060,24	2282,90
1060,67	2281,20
1061,09	2292,20
1061,51	2283,00
1061,94	2282,60
1062,36	2288,20
1062,79	2298,40
1063,21	2286,50
1063,64	2283,10
1064,06	2279,00
1064,48	2290,50
1064,91	2292,30
1065,33	2280,50
1065,76	2274,60
1066,18	2275,80
1066,60	2292,80
1067,03	2283,70
1067,45	2283,50
1067,87	2283,80
1068,30	2281,40
1068,72	2301,10
1069,15	2282,00
1069,57	2278,00
1069,99	2277,40
1070,42	2293,10
1070,84	2294,10
1071,26	2294,30
1071,69	2281,20
1072,11	2291,50
1072,53	2276,50
1072,96	2278,20
1073,38	2274,00
1073,80	2286,40
1074,23	2281,10
1074,65	2276,80
1075,07	2281,90
1075,50	2277,80
1075,92	2284,30
1076,34	2277,60
1076,77	2275,10
1077,19	2283,00
1077,61	2290,30
1078,04	2278,50
1078,46	2289,80
1078,88	2296,70
1079,30	2269,00
1079,73	2284,40
1080,15	2281,60
1080,57	2282,90
1081,00	2289,80
1081,42	2282,20
1081,84	2279,20
1082,26	2287,60
1082,69	2279,80
1083,11	2283,70
1083,53	2284,00
1083,95	2283,60
1084,38	2288,70
1084,80	2282,50
1085,22	2284,30
1085,64	2295,40
1086,07	2270,50
1086,49	2280,20
1086,91	2285,50
1087,33	2273,50
1087,76	2289,70
1088,18	2588,70
1088,60	2279,50
1089,02	2280,40
1089,45	2279,60
1089,87	2278,80
1090,29	2290,80
1090,71	2284,50
1091,13	2275,90
1091,56	2286,90
1091,98	2277,90
1092,40	2273,90
1092,82	2282,70
1093,24	2278,00
1093,66	2281,80
1094,09	2280,50
1094,51	2283,90
1094,93	2279,70
1095,35	2280,30
1095,77	2279,40
1096,19	2286,50
1096,62	2282,90
1097,04	2278,10
1097,46	2285,00
1097,88	2281,70
1098,30	2285,70
1098,72	2288,80
1099,15	2289,50
1099,57	2284,10
1099,99	2282,30
1100,41	2276,60
1100,83	2280,80
1101,25	2278,40
1101,67	2284,20
1102,09	2272,10
1102,52	2277,10
1102,94	2280,40
1103,36	2283,20
1103,78	2282,50
1104,20	2275,90
1104,62	2293,40
1105,04	2264,90
1105,46	2282,10
1105,88	2281,00
1106,30	2275,80
1106,73	2282,70
1107,15	2268,50
1107,57	2271,40
1107,99	2287,40
1108,41	2271,80
1108,83	2280,60
1109,25	2283,20
1109,67	2281,10
1110,09	2271,80
1110,51	2275,20
1110,93	2268,40
1111,35	2274,90
1111,77	2270,60
1112,19	2274,20
1112,61	2269,90
1113,03	2275,80
1113,45	2273,50
1113,87	2270,30
1114,29	2278,80
1114,71	2282,40
1115,13	2276,30
1115,55	2279,60
1115,98	2272,30
1116,40	2281,70
1116,82	2282,50
1117,24	2277,40
1117,66	2272,90
1118,08	2172,90
1118,50	2174,90
1118,91	2173,30
1119,33	2175,40
>>>>>End Processed Spectral Data<<<<<
