SpectraSuite Data File
++++++++++++++++++++++++++++++++++++
Date: Thu Jan 16 15:21:36 EET 2014
User: OO Maya
Dark Spectrum Present: No
Reference Spectrum Present: No
Number of Sampled Component Spectra: 1
Spectrometers: MAYP11278
Integration Time (usec): 500000 (MAYP11278)
Spectra Averaged: 2 (MAYP11278)
Boxcar Smoothing: 0 (MAYP11278)
Correct for Electrical Dark: No (MAYP11278)
Strobe/Lamp Enabled: No (MAYP11278)
Correct for Detector Non-linearity: No (MAYP11278)
Correct for Stray Light: No (MAYP11278)
Number of Pixels in Processed Spectrum: 2068
>>>>>Begin Processed Spectral Data<<<<<
188,05	2281,00
188,53	2204,00
189,01	2175,00
189,49	2175,00
189,96	2523,50
190,44	2538,00
190,92	2533,50
191,40	2547,00
191,88	2575,50
192,36	2540,00
192,83	2536,00
193,31	2527,00
193,79	2535,00
194,27	2533,50
194,75	2557,00
195,23	2543,00
195,70	2570,50
196,18	2533,00
196,66	2552,00
197,14	2625,50
197,62	2543,50
198,09	2528,00
198,57	2526,50
199,05	2523,00
199,53	2560,50
200,01	2566,50
200,48	2544,00
200,96	2540,50
201,44	2560,50
201,92	2573,50
202,39	2558,00
202,87	2520,00
203,35	2559,00
203,83	2533,50
204,31	2576,50
204,78	2600,00
205,26	2529,00
205,74	2551,00
206,22	2606,00
206,69	2557,00
207,17	2554,00
207,65	2631,50
208,13	2561,50
208,60	2564,50
209,08	2554,50
209,56	2574,00
210,04	2579,00
210,51	2552,00
210,99	2562,50
211,47	2575,00
211,94	2560,50
212,42	2532,00
212,90	2610,50
213,38	2573,50
213,85	2549,00
214,33	2605,50
214,81	2569,00
215,29	2608,50
215,76	2556,50
216,24	2572,50
216,72	2581,50
217,19	2565,50
217,67	2542,00
218,15	2562,00
218,62	2596,50
219,10	2534,00
219,58	2539,00
220,05	2552,00
220,53	2563,00
221,01	2694,00
221,49	2550,00
221,96	2581,50
222,44	2544,00
222,92	2586,50
223,39	2546,50
223,87	2579,50
224,35	2560,00
224,82	2556,00
225,30	2529,50
225,78	2550,50
226,25	2544,50
226,73	2561,50
227,21	2591,50
227,68	2550,00
228,16	2566,50
228,63	2602,50
229,11	2589,00
229,59	2567,50
230,06	2569,50
230,54	2552,00
231,02	2580,00
231,49	2615,50
231,97	2565,00
232,45	2553,00
232,92	2531,00
233,40	2556,50
233,87	2577,00
234,35	2681,00
234,83	2573,50
235,30	2546,00
235,78	2545,00
236,25	2546,50
236,73	2596,00
237,21	2619,50
237,68	2567,00
238,16	2559,50
238,63	2567,50
239,11	2582,00
239,59	2553,50
240,06	2529,00
240,54	2574,00
241,01	2617,00
241,49	2586,00
241,96	2550,00
242,44	2588,50
242,92	2601,50
243,39	2535,50
243,87	2537,50
244,34	2595,50
244,82	2605,00
245,29	2547,00
245,77	2609,50
246,24	2600,00
246,72	2542,50
247,20	2573,00
247,67	2547,00
248,15	2578,00
248,62	2585,50
249,10	2537,50
249,57	2574,00
250,05	2589,00
250,52	2574,50
251,00	2608,50
251,47	2563,50
251,95	2624,50
252,42	2611,00
252,90	2554,50
253,37	2589,50
253,85	2573,00
254,32	2558,50
254,80	2566,50
255,27	2583,00
255,75	2594,50
256,22	2552,50
256,70	2571,50
257,17	2574,00
257,65	2595,50
258,12	2671,00
258,60	2568,50
259,07	2569,50
259,55	2571,50
260,02	2593,00
260,50	2622,00
260,97	2553,00
261,45	2554,00
261,92	2606,50
262,40	2555,00
262,87	2596,00
263,35	2567,00
263,82	2526,00
264,30	2594,50
264,77	2601,00
265,25	2564,00
265,72	2588,00
266,19	2586,00
266,67	2575,50
267,14	2570,50
267,62	2574,00
268,09	2575,50
268,57	2571,50
269,04	2503,00
269,51	2541,00
269,99	2542,00
270,46	2585,50
270,94	2615,50
271,41	2553,00
271,89	2572,50
272,36	2543,50
272,83	2533,00
273,31	2520,00
273,78	2584,50
274,26	2686,50
274,73	2598,00
275,20	2604,00
275,68	2551,00
276,15	2568,50
276,63	2595,50
277,10	2597,00
277,57	2535,00
278,05	2578,00
278,52	2544,50
279,00	2711,00
279,47	2550,50
279,94	2557,50
280,42	2685,50
280,89	2600,00
281,36	2682,50
281,84	2558,00
282,31	2606,00
282,78	2557,00
283,26	2566,50
283,73	2580,50
284,21	2573,50
284,68	2553,00
285,15	2591,50
285,63	2571,00
286,10	2568,00
286,57	2592,50
287,05	2531,50
287,52	2593,00
287,99	2612,50
288,47	2572,00
288,94	2578,00
289,41	2524,50
289,89	2596,50
290,36	2549,50
290,83	2575,00
291,30	2548,50
291,78	2583,00
292,25	2628,00
292,72	2551,50
293,20	2629,00
293,67	2572,50
294,14	2581,00
294,62	2584,00
295,09	2551,50
295,56	2573,00
296,03	2578,00
296,51	2617,50
296,98	2608,50
297,45	2590,50
297,93	2583,50
298,40	2575,50
298,87	2544,50
299,34	2614,50
299,82	2566,00
300,29	2579,00
300,76	2554,50
301,23	2601,00
301,71	2591,50
302,18	2590,50
302,65	2541,00
303,12	2611,00
303,60	2610,50
304,07	2542,00
304,54	2551,50
305,01	2550,50
305,49	2590,00
305,96	2588,50
306,43	2598,00
306,90	2579,50
307,38	2570,00
307,85	2560,50
308,32	2584,50
308,79	2562,50
309,27	2596,00
309,74	2602,50
310,21	2583,50
310,68	2590,50
311,15	2576,50
311,63	2565,00
312,10	2606,00
312,57	2567,00
313,04	2633,50
313,51	2538,00
313,99	2570,50
314,46	2568,50
314,93	2549,50
315,40	2555,00
315,87	2601,00
316,34	2587,50
316,82	2576,50
317,29	2590,00
317,76	2567,00
318,23	2635,50
318,70	2571,00
319,17	2556,00
319,65	2538,50
320,12	2586,50
320,59	2620,00
321,06	2593,00
321,53	2543,00
322,00	2525,50
322,48	2535,50
322,95	2625,00
323,42	2559,50
323,89	2637,00
324,36	2533,00
324,83	2573,00
325,30	2561,50
325,78	2571,00
326,25	2558,50
326,72	2536,50
327,19	2585,00
327,66	2583,50
328,13	2592,50
328,60	2576,00
329,07	2567,00
329,54	2559,00
330,02	2551,00
330,49	2547,00
330,96	2598,50
331,43	2594,00
331,90	2649,00
332,37	2552,00
332,84	2644,50
333,31	2600,00
333,78	2593,50
334,25	2630,50
334,72	2604,50
335,20	2605,50
335,67	2689,00
336,14	2548,50
336,61	2573,50
337,08	2558,50
337,55	2582,50
338,02	2569,00
338,49	2552,50
338,96	2608,00
339,43	2588,50
339,90	2544,00
340,37	2547,50
340,84	2547,50
341,31	2583,50
341,78	2619,50
342,25	2567,50
342,72	2584,00
343,19	2589,00
343,67	2592,50
344,14	2562,00
344,61	2569,00
345,08	2545,50
345,55	2559,50
346,02	2587,00
346,49	2561,00
346,96	2556,50
347,43	2622,00
347,90	2565,50
348,37	2598,00
348,84	2567,50
349,31	2552,00
349,78	2555,50
350,25	2594,00
350,72	2586,50
351,19	2553,50
351,66	2587,00
352,13	2628,00
352,60	2589,50
353,07	2570,00
353,54	2579,50
354,01	2575,00
354,48	2593,00
354,94	2588,00
355,41	2576,00
355,88	2621,50
356,35	2547,50
356,82	2632,00
357,29	2558,50
357,76	2638,00
358,23	2590,00
358,70	2537,50
359,17	2546,50
359,64	2566,00
360,11	2555,50
360,58	2588,00
361,05	2623,50
361,52	2570,50
361,99	2561,50
362,46	2574,50
362,93	2557,00
363,39	2566,50
363,86	2642,00
364,33	2591,00
364,80	2564,50
365,27	2584,50
365,74	2567,50
366,21	2541,50
366,68	2580,50
367,15	2560,00
367,62	3371,50
368,09	2491,50
368,55	2569,00
369,02	2600,00
369,49	2546,50
369,96	2585,50
370,43	2569,50
370,90	2573,50
371,37	2558,50
371,84	2583,50
372,31	2561,50
372,77	2527,00
373,24	2593,00
373,71	2593,00
374,18	2544,00
374,65	2548,50
375,12	2572,00
375,59	2527,50
376,05	2614,00
376,52	2557,00
376,99	2546,50
377,46	2523,50
377,93	2593,00
378,40	2585,00
378,86	2574,50
379,33	2579,50
379,80	2564,50
380,27	2571,00
380,74	2626,50
381,21	2591,00
381,67	2616,00
382,14	2620,50
382,61	2570,00
383,08	2597,00
383,55	2595,50
384,02	2650,00
384,48	2606,00
384,95	2777,50
385,42	2609,50
385,89	2619,00
386,36	2666,00
386,82	2716,50
387,29	2662,00
387,76	2669,50
388,23	2762,00
388,69	2761,50
389,16	2836,00
389,63	2789,50
390,10	2889,00
390,57	2883,50
391,03	2936,50
391,50	2954,50
391,97	2973,50
392,44	2997,50
392,90	2988,00
393,37	3006,00
393,84	3112,50
394,31	3033,50
394,77	3065,50
395,24	3019,00
395,71	3094,00
396,18	3249,00
396,64	3055,50
397,11	3126,00
397,58	3121,50
398,05	3063,00
398,51	3115,00
398,98	3070,00
399,45	3076,00
399,92	3138,50
400,38	3070,50
400,85	3084,50
401,32	3049,50
401,78	3060,00
402,25	3053,00
402,72	3010,50
403,18	2963,00
403,65	3014,50
404,12	2948,50
404,59	2977,50
405,05	2966,00
405,52	2951,50
405,99	2857,00
406,45	2882,50
406,92	2859,00
407,39	2891,50
407,85	2810,50
408,32	2807,50
408,79	2804,00
409,25	2762,50
409,72	2821,50
410,19	2755,50
410,65	2810,00
411,12	2742,00
411,59	2794,50
412,05	2740,50
412,52	2696,00
412,99	2744,50
413,45	2723,50
413,92	2745,50
414,39	2733,00
414,85	2764,00
415,32	2702,00
415,78	2729,50
416,25	2714,00
416,72	2695,50
417,18	2728,00
417,65	2689,50
418,12	2686,00
418,58	2680,50
419,05	2670,50
419,51	2702,50
419,98	2651,50
420,45	2705,00
420,91	2643,00
421,38	2651,50
421,84	2654,50
422,31	2653,50
422,78	2627,00
423,24	2652,50
423,71	2660,50
424,17	2676,50
424,64	2649,00
425,11	2668,00
425,57	2648,00
426,04	2691,50
426,50	2639,50
426,97	2678,00
427,43	2678,50
427,90	2687,50
428,37	2618,00
428,83	2675,00
429,30	2649,00
429,76	2631,00
430,23	2635,00
430,69	2750,50
431,16	2611,00
431,62	2633,00
432,09	2689,00
432,55	2670,50
433,02	2616,50
433,48	2616,00
433,95	2623,00
434,42	2634,50
434,88	2666,50
435,35	2593,00
435,81	2647,00
436,28	2641,50
436,74	2598,50
437,21	2653,00
437,67	2620,00
438,14	2623,50
438,60	2584,00
439,07	2607,50
439,53	2765,50
440,00	2634,50
440,46	2656,00
440,93	2650,50
441,39	2612,50
441,86	2615,00
442,32	2695,50
442,79	2587,00
443,25	2629,50
443,72	2621,50
444,18	2593,50
444,64	2680,50
445,11	2621,50
445,57	2636,50
446,04	2634,00
446,50	2623,00
446,97	2624,50
447,43	2639,00
447,90	2610,00
448,36	2606,00
448,83	2629,00
449,29	2637,00
449,75	2609,00
450,22	2601,50
450,68	2600,50
451,15	2621,50
451,61	2639,50
452,08	2637,00
452,54	2581,00
453,00	2636,50
453,47	2619,50
453,93	2618,00
454,40	2623,50
454,86	2628,50
455,32	2588,50
455,79	2620,00
456,25	2656,00
456,72	2599,00
457,18	2662,00
457,64	2624,00
458,11	2615,50
458,57	2584,50
459,04	2642,00
459,50	2625,00
459,96	2622,50
460,43	2604,00
460,89	2570,00
461,36	2683,00
461,82	2641,50
462,28	2593,50
462,75	2579,50
463,21	2655,50
463,67	2617,50
464,14	2630,50
464,60	2633,00
465,06	2598,00
465,53	2609,50
465,99	2649,00
466,45	2608,00
466,92	2630,50
467,38	2626,00
467,84	2623,50
468,31	2633,00
468,77	2638,00
469,23	2635,00
469,70	2595,00
470,16	2644,00
470,62	2627,00
471,09	2606,00
471,55	2607,00
472,01	2611,50
472,48	2611,00
472,94	2606,00
473,40	2674,00
473,87	2613,50
474,33	2602,50
474,79	2627,50
475,25	2607,00
475,72	2642,00
476,18	2617,50
476,64	2639,50
477,11	2616,00
477,57	2609,50
478,03	2677,50
478,49	2645,00
478,96	2657,00
479,42	2593,50
479,88	2693,50
480,35	2643,00
480,81	2650,00
481,27	2627,50
481,73	2626,00
482,20	2654,00
482,66	2620,50
483,12	2645,50
483,58	2614,00
484,05	2614,00
484,51	2690,50
484,97	2650,00
485,43	2633,00
485,89	2604,00
486,36	2624,00
486,82	2605,50
487,28	2651,50
487,74	2606,50
488,21	2614,50
488,67	2642,50
489,13	2651,00
489,59	2640,00
490,05	2676,00
490,52	2616,00
490,98	2658,00
491,44	2609,50
491,90	2629,50
492,36	2610,00
492,83	2683,50
493,29	2671,50
493,75	2647,50
494,21	2637,50
494,67	2660,50
495,14	2636,50
495,60	2613,50
496,06	2666,00
496,52	2629,00
496,98	2647,50
497,44	2742,50
497,91	2685,00
498,37	2655,00
498,83	2675,00
499,29	2653,50
499,75	2747,50
500,21	2660,50
500,67	2657,50
501,14	2670,00
501,60	2643,50
502,06	2689,00
502,52	2673,00
502,98	2680,00
503,44	2680,00
503,90	2717,00
504,37	2665,50
504,83	2684,00
505,29	2706,00
505,75	2651,50
506,21	2685,50
506,67	2716,00
507,13	2691,00
507,59	2698,50
508,05	2710,50
508,51	2679,00
508,98	2671,50
509,44	2650,50
509,90	2690,00
510,36	2720,00
510,82	2669,50
511,28	2759,00
511,74	2747,00
512,20	2680,50
512,66	2663,50
513,12	2686,50
513,58	2734,00
514,04	2663,50
514,51	2756,00
514,97	2746,50
515,43	2667,50
515,89	2729,00
516,35	2746,00
516,81	2746,00
517,27	2807,50
517,73	2732,00
518,19	2695,00
518,65	2864,00
519,11	2732,50
519,57	2717,50
520,03	2700,50
520,49	2694,00
520,95	2748,00
521,41	2737,50
521,87	2731,50
522,33	2738,50
522,79	2709,50
523,25	2814,00
523,71	2759,50
524,17	2730,50
524,63	2785,50
525,09	2755,00
525,55	2768,50
526,01	2779,00
526,47	2766,00
526,93	2767,50
527,39	2738,00
527,85	2735,00
528,31	2779,00
528,77	2763,50
529,23	2759,50
529,69	2740,50
530,15	2763,00
530,61	2766,00
531,07	2732,00
531,53	2794,50
531,99	2765,50
532,45	2765,00
532,91	2760,00
533,37	2773,50
533,83	2754,00
534,29	2748,00
534,75	2755,50
535,21	2747,50
535,67	2758,00
536,12	2754,50
536,58	2790,50
537,04	2738,00
537,50	2788,50
537,96	2786,00
538,42	2785,50
538,88	2827,50
539,34	2793,00
539,80	2963,00
540,26	2726,50
540,72	2824,00
541,18	2772,50
541,63	2748,00
542,09	2797,00
542,55	2788,00
543,01	2803,50
543,47	2862,50
543,93	2750,00
544,39	2872,50
544,85	2812,50
545,31	2798,00
545,76	2772,50
546,22	2823,00
546,68	2784,50
547,14	2816,00
547,60	2822,50
548,06	2780,00
548,52	2772,00
548,98	2793,00
549,43	2777,50
549,89	2852,00
550,35	2800,00
550,81	2756,00
551,27	2811,00
551,73	2783,50
552,19	2851,00
552,64	2792,50
553,10	2778,00
553,56	2804,00
554,02	2777,00
554,48	2755,50
554,93	2799,50
555,39	2791,00
555,85	2858,00
556,31	2802,50
556,77	2839,00
557,23	2738,00
557,68	2817,00
558,14	2857,00
558,60	2779,50
559,06	2788,50
559,52	2788,50
559,97	2773,00
560,43	2787,50
560,89	2801,50
561,35	2800,00
561,81	2786,00
562,26	2789,00
562,72	2768,00
563,18	2786,00
563,64	2831,50
564,09	2778,50
564,55	2816,00
565,01	2774,00
565,47	2781,00
565,92	2786,50
566,38	2837,50
566,84	2801,00
567,30	2770,00
567,75	2800,00
568,21	2818,00
568,67	2764,00
569,13	2778,00
569,58	2814,00
570,04	2787,00
570,50	2799,00
570,96	2814,50
571,41	2795,00
571,87	2792,50
572,33	2784,50
572,78	2800,00
573,24	2775,50
573,70	2800,00
574,16	2794,00
574,61	2841,50
575,07	2827,50
575,53	2761,00
575,98	2794,50
576,44	2720,50
576,90	2818,00
577,36	2782,50
577,81	2783,00
578,27	2757,00
578,73	2822,00
579,18	2795,50
579,64	2754,50
580,10	2805,00
580,55	2794,00
581,01	2766,50
581,47	2777,00
581,92	2777,00
582,38	2767,50
582,84	2746,50
583,29	2786,00
583,75	2795,00
584,21	2778,50
584,66	2809,50
585,12	2755,00
585,57	2888,00
586,03	2761,00
586,49	2781,00
586,94	2767,50
587,40	2763,50
587,86	2821,50
588,31	2733,00
588,77	2775,00
589,22	2762,00
589,68	2745,50
590,14	2785,00
590,59	2792,50
591,05	2755,50
591,51	2735,00
591,96	2813,50
592,42	2766,50
592,87	2786,00
593,33	2748,50
593,78	2786,50
594,24	2758,00
594,70	2748,00
595,15	2796,50
595,61	2757,00
596,06	2719,50
596,52	2818,50
596,98	2776,50
597,43	2810,50
597,89	2779,00
598,34	2727,50
598,80	2749,00
599,25	2789,00
599,71	2736,50
600,16	2768,50
600,62	2775,50
601,08	2751,50
601,53	2773,00
601,99	2719,50
602,44	2845,00
602,90	2754,00
603,35	2757,50
603,81	2712,50
604,26	2699,50
604,72	2771,00
605,17	2736,00
605,63	2753,50
606,08	2745,50
606,54	2696,50
606,99	2740,00
607,45	2717,00
607,90	2747,50
608,36	2756,50
608,81	2744,00
609,27	2816,50
609,72	2765,00
610,18	2740,00
610,63	2718,00
611,09	2740,50
611,54	2689,50
612,00	2772,50
612,45	2755,50
612,91	2728,50
613,36	2831,00
613,82	2686,00
614,27	2708,50
614,73	2682,00
615,18	2688,50
615,64	2705,50
616,09	2725,50
616,54	2708,50
617,00	2719,50
617,45	2716,50
617,91	2753,50
618,36	2698,00
618,82	2711,00
619,27	2712,50
619,72	2724,50
620,18	2716,00
620,63	2759,00
621,09	2754,00
621,54	2717,50
622,00	2747,50
622,45	2766,00
622,90	2752,00
623,36	2702,00
623,81	2704,00
624,27	2744,00
624,72	2661,00
625,17	2703,00
625,63	2718,00
626,08	2669,50
626,54	2713,00
626,99	2711,00
627,44	2669,00
627,90	2715,00
628,35	2742,50
628,81	2648,00
629,26	2706,00
629,71	2693,50
630,17	2683,00
630,62	2703,00
631,07	2683,00
631,53	2721,00
631,98	2726,00
632,43	2732,00
632,89	2675,00
633,34	2679,50
633,79	2677,50
634,25	2662,50
634,70	2658,50
635,15	2675,00
635,61	2662,50
636,06	2646,50
636,51	2676,50
636,97	2688,50
637,42	2665,50
637,87	2716,50
638,33	2715,50
638,78	2656,00
639,23	2693,50
639,69	2665,00
640,14	2654,50
640,59	2681,50
641,05	2697,50
641,50	2648,50
641,95	2664,50
642,40	2669,00
642,86	2638,00
643,31	2666,50
643,76	2684,50
644,22	2645,00
644,67	2643,50
645,12	2666,00
645,57	2648,50
646,03	2653,50
646,48	2673,00
646,93	2677,50
647,38	2685,50
647,84	2676,00
648,29	2672,50
648,74	2641,50
649,19	2701,00
649,65	2683,00
650,10	2795,50
650,55	2630,50
651,00	2650,50
651,46	2651,00
651,91	2673,50
652,36	2630,00
652,81	2652,50
653,27	2646,50
653,72	2639,50
654,17	2666,00
654,62	2652,00
655,07	2650,50
655,53	2638,50
655,98	2688,00
656,43	2644,50
656,88	2640,50
657,33	2671,00
657,79	2670,50
658,24	2619,00
658,69	2660,00
659,14	2623,00
659,59	2790,50
660,05	2636,50
660,50	2680,50
660,95	2641,50
661,40	2622,00
661,85	2634,50
662,30	2624,50
662,76	2607,50
663,21	2659,00
663,66	2633,50
664,11	2625,00
664,56	2645,50
665,01	2592,50
665,47	2640,00
665,92	2603,00
666,37	2639,00
666,82	2652,00
667,27	2728,00
667,72	2675,00
668,17	2615,50
668,62	2636,50
669,08	2614,00
669,53	2709,50
669,98	2596,00
670,43	2613,50
670,88	2670,00
671,33	2618,50
671,78	2673,00
672,23	2718,00
672,69	2628,50
673,14	2640,00
673,59	2659,00
674,04	2737,50
674,49	2652,50
674,94	2640,50
675,39	2590,00
675,84	2593,00
676,29	2627,50
676,74	2605,00
677,19	2628,50
677,64	2613,50
678,10	2696,00
678,55	2605,50
679,00	2611,00
679,45	2622,00
679,90	2607,50
680,35	2617,00
680,80	2608,00
681,25	2574,00
681,70	2574,00
682,15	2604,00
682,60	2624,50
683,05	2639,50
683,50	2636,00
683,95	2625,00
684,40	2661,00
684,85	2643,50
685,30	2635,00
685,75	2632,00
686,20	2598,00
686,65	2596,50
687,10	2617,50
687,55	2582,50
688,00	2613,00
688,45	2608,00
688,90	2711,50
689,35	2628,50
689,80	2564,50
690,25	2609,50
690,70	2611,50
691,15	2575,50
691,60	2605,00
692,05	2568,50
692,50	2613,50
692,95	2599,00
693,40	2624,00
693,85	2634,50
694,30	2609,00
694,75	2614,50
695,20	2758,00
695,65	2600,50
696,10	2605,50
696,55	2666,50
697,00	2598,00
697,45	2588,50
697,90	2610,50
698,35	2577,00
698,80	2613,50
699,24	2628,00
699,69	2583,50
700,14	2592,50
700,59	2626,50
701,04	2629,00
701,49	2743,50
701,94	2569,00
702,39	2665,50
702,84	2585,00
703,29	2593,50
703,74	2610,50
704,19	2593,00
704,63	2582,50
705,08	2641,00
705,53	2646,00
705,98	2636,00
706,43	2581,00
706,88	2619,50
707,33	2596,50
707,78	2589,50
708,22	2612,00
708,67	2618,00
709,12	2617,00
709,57	2580,50
710,02	2583,50
710,47	2605,50
710,92	2573,50
711,37	2621,00
711,81	2595,50
712,26	2598,00
712,71	2566,00
713,16	2656,00
713,61	2591,00
714,06	2612,50
714,50	2645,50
714,95	2630,50
715,40	2594,50
715,85	2609,00
716,30	2583,50
716,75	2589,00
717,19	2562,00
717,64	2555,00
718,09	2606,50
718,54	2652,50
718,99	2539,50
719,43	2564,50
719,88	2604,00
720,33	2571,50
720,78	2571,50
721,23	2598,50
721,67	2578,00
722,12	2615,00
722,57	2568,00
723,02	2561,50
723,47	2543,00
723,91	2599,00
724,36	2557,00
724,81	2599,50
725,26	2533,50
725,70	2591,00
726,15	2581,50
726,60	2579,50
727,05	2654,00
727,49	2570,00
727,94	2628,50
728,39	2607,00
728,84	2567,00
729,28	2628,00
729,73	2575,00
730,18	2616,50
730,63	2550,00
731,07	2595,00
731,52	2589,00
731,97	2596,00
732,41	2594,00
732,86	2569,50
733,31	2606,00
733,76	2603,00
734,20	2557,00
734,65	2604,50
735,10	2615,00
735,54	2603,50
735,99	2692,50
736,44	2571,50
736,89	2606,00
737,33	2611,00
737,78	2612,50
738,23	2574,00
738,67	2574,50
739,12	2584,50
739,57	2550,00
740,01	2618,00
740,46	2605,50
740,91	2557,00
741,35	2603,50
741,80	2594,50
742,25	2567,00
742,69	2575,00
743,14	2554,50
743,59	2557,00
744,03	2602,00
744,48	2609,50
744,92	2613,50
745,37	2593,50
745,82	2611,00
746,26	2632,00
746,71	2538,00
747,16	2545,50
747,60	2558,50
748,05	2592,50
748,49	2584,00
748,94	2567,50
749,39	2609,50
749,83	2696,50
750,28	2578,50
750,73	2574,00
751,17	2538,50
751,62	2573,50
752,06	2585,50
752,51	2563,50
752,95	2637,50
753,40	2566,00
753,85	2571,50
754,29	2545,50
754,74	2564,50
755,18	2554,50
755,63	2577,00
756,07	2570,00
756,52	2626,50
756,97	2564,00
757,41	2627,00
757,86	2565,50
758,30	2572,50
758,75	2579,00
759,19	2575,00
759,64	2535,50
760,08	2576,50
760,53	2589,50
760,98	2565,50
761,42	2575,00
761,87	2619,50
762,31	2572,50
762,76	2548,50
763,20	2562,50
763,65	2602,00
764,09	2574,50
764,54	2544,50
764,98	2550,50
765,43	2604,00
765,87	2556,00
766,32	2545,50
766,76	2566,00
767,21	2574,50
767,65	2578,00
768,10	2583,50
768,54	2595,50
768,99	2584,50
769,43	2650,50
769,88	2553,50
770,32	2568,50
770,77	2552,00
771,21	2550,00
771,65	2599,50
772,10	2592,50
772,54	2581,00
772,99	2539,50
773,43	2567,00
773,88	2565,50
774,32	2537,00
774,77	2569,50
775,21	2550,50
775,65	2566,50
776,10	2574,00
776,54	2533,50
776,99	2571,00
777,43	2566,50
777,88	2584,50
778,32	2591,00
778,76	2569,00
779,21	2581,50
779,65	2679,50
780,10	2616,50
780,54	2570,50
780,99	2598,00
781,43	2589,50
781,87	2561,50
782,32	2569,00
782,76	2521,50
783,20	2561,50
783,65	2601,50
784,09	2605,50
784,54	2565,50
784,98	2559,50
785,42	2575,00
785,87	2545,00
786,31	2600,00
786,75	2604,50
787,20	2628,00
787,64	2542,00
788,09	2556,00
788,53	2575,50
788,97	2530,00
789,42	2573,50
789,86	2557,50
790,30	2569,50
790,75	2531,50
791,19	2551,50
791,63	2622,00
792,08	2547,50
792,52	2569,50
792,96	2558,00
793,41	2705,50
793,85	2605,50
794,29	2582,00
794,74	2588,50
795,18	2578,00
795,62	2533,00
796,06	2586,50
796,51	2576,50
796,95	2563,00
797,39	2561,00
797,84	2546,50
798,28	2572,50
798,72	2605,50
799,16	2576,00
799,61	2544,50
800,05	2635,00
800,49	2598,00
800,94	2544,00
801,38	2576,00
801,82	2572,00
802,26	2550,00
802,71	2600,00
803,15	2626,50
803,59	2590,50
804,03	2589,50
804,48	2561,50
804,92	2554,50
805,36	2631,50
805,80	2636,50
806,25	2615,50
806,69	2598,50
807,13	2634,00
807,57	2558,50
808,01	2579,00
808,46	2537,50
808,90	2594,00
809,34	2581,00
809,78	2574,00
810,23	2541,00
810,67	2583,00
811,11	2608,00
811,55	2707,00
811,99	2563,50
812,44	2552,00
812,88	2595,50
813,32	2639,50
813,76	2611,00
814,20	2575,50
814,64	2605,50
815,09	2594,00
815,53	2591,00
815,97	2560,00
816,41	2556,00
816,85	2562,00
817,29	2600,00
817,74	2572,50
818,18	2614,00
818,62	2562,50
819,06	2596,50
819,50	2612,00
819,94	2560,50
820,39	2593,00
820,83	2570,50
821,27	2583,00
821,71	2539,50
822,15	2608,50
822,59	2551,00
823,03	2575,00
823,47	2569,50
823,92	2530,50
824,36	2576,00
824,80	2561,00
825,24	2584,00
825,68	2577,50
826,12	2545,50
826,56	2545,00
827,00	2532,00
827,44	2551,00
827,88	2598,00
828,33	2615,50
828,77	2547,50
829,21	2604,50
829,65	2573,50
830,09	2555,00
830,53	2619,50
830,97	2564,50
831,41	2660,50
831,85	2601,50
832,29	2592,50
832,73	2523,50
833,17	2564,00
833,61	2558,50
834,05	2611,00
834,49	2576,00
834,93	2570,50
835,37	2546,50
835,82	2599,50
836,26	2565,50
836,70	2579,00
837,14	2575,50
837,58	2610,00
838,02	2541,00
838,46	2559,50
838,90	2571,00
839,34	2568,50
839,78	2619,50
840,22	2637,50
840,66	2585,00
841,10	2622,50
841,54	2529,50
841,98	2552,00
842,42	2540,00
842,86	2555,50
843,30	2587,50
843,74	2574,50
844,18	2577,50
844,62	2560,50
845,06	2548,00
845,50	2579,50
845,94	2553,00
846,37	2608,00
846,81	2552,00
847,25	2557,00
847,69	2566,00
848,13	2544,00
848,57	2573,00
849,01	2554,50
849,45	2574,50
849,89	2586,50
850,33	2596,50
850,77	2565,50
851,21	2598,50
851,65	2532,00
852,09	2592,50
852,53	2597,50
852,97	2570,50
853,40	2547,50
853,84	2579,50
854,28	2535,50
854,72	2589,50
855,16	2530,50
855,60	2554,00
856,04	2602,00
856,48	2607,50
856,92	2585,50
857,36	2579,50
857,79	2584,00
858,23	2530,00
858,67	2616,50
859,11	2527,00
859,55	2533,00
859,99	2558,00
860,43	2556,50
860,87	2575,00
861,30	2575,50
861,74	2540,50
862,18	2553,00
862,62	2595,00
863,06	2547,00
863,50	2545,50
863,94	2586,00
864,37	2552,50
864,81	2555,00
865,25	2570,00
865,69	2545,50
866,13	2569,50
866,57	2512,50
867,00	2591,50
867,44	2550,00
867,88	2579,50
868,32	2560,50
868,76	2552,00
869,19	2579,50
869,63	2564,50
870,07	2620,00
870,51	2653,00
870,95	2536,00
871,38	2561,00
871,82	2576,00
872,26	2557,00
872,70	2572,50
873,14	2579,00
873,57	2563,00
874,01	2597,00
874,45	2602,00
874,89	2555,00
875,32	2539,00
875,76	2598,00
876,20	2522,00
876,64	2583,50
877,07	2575,00
877,51	2563,00
877,95	2555,50
878,39	2554,00
878,82	2579,50
879,26	2573,50
879,70	2613,50
880,14	2550,00
880,57	2530,50
881,01	2551,00
881,45	2573,00
881,89	2587,50
882,32	2559,00
882,76	2554,50
883,20	2567,50
883,63	2557,50
884,07	2528,50
884,51	2571,50
884,94	2572,50
885,38	2575,50
885,82	2577,50
886,26	2547,00
886,69	2558,00
887,13	2622,50
887,57	2546,50
888,00	2546,00
888,44	2566,50
888,88	2542,00
889,31	2689,50
889,75	2534,00
890,19	2592,00
890,62	2530,00
891,06	2574,00
891,50	2584,50
891,93	2521,00
892,37	2559,50
892,81	2552,50
893,24	2545,50
893,68	2552,00
894,11	2586,00
894,55	2548,00
894,99	2593,50
895,42	2544,00
895,86	2542,00
896,30	2579,00
896,73	2568,00
897,17	2541,50
897,60	2545,00
898,04	2544,00
898,48	2564,50
898,91	2593,50
899,35	2532,50
899,78	2540,50
900,22	2538,50
900,66	2587,00
901,09	2574,50
901,53	2554,00
901,96	2626,50
902,40	2627,00
902,84	2548,50
903,27	2564,00
903,71	2632,00
904,14	2545,00
904,58	2597,50
905,01	2544,00
905,45	2550,00
905,88	2522,50
906,32	2606,50
906,76	2575,00
907,19	2592,50
907,63	2556,50
908,06	2570,00
908,50	2591,50
908,93	2619,00
909,37	2546,00
909,80	2547,50
910,24	2572,00
910,67	2558,50
911,11	2559,50
911,54	2543,50
911,98	2550,00
912,41	2569,50
912,85	2542,50
913,28	2577,50
913,72	2571,00
914,15	2560,00
914,59	2540,00
915,02	2533,00
915,46	2558,50
915,89	2552,50
916,33	2583,00
916,76	2538,50
917,20	2594,00
917,63	2542,00
918,07	2598,00
918,50	2542,00
918,94	2557,00
919,37	2547,50
919,81	2573,50
920,24	2586,50
920,67	2563,50
921,11	2613,50
921,54	2583,50
921,98	2549,50
922,41	2523,50
922,85	2540,00
923,28	2568,00
923,72	2613,00
924,15	2583,50
924,58	2527,00
925,02	2591,00
925,45	2533,00
925,89	2590,00
926,32	2643,00
926,75	2555,00
927,19	2586,50
927,62	2533,50
928,06	2635,50
928,49	2566,00
928,92	2522,00
929,36	2598,50
929,79	2543,50
930,23	2572,00
930,66	2588,50
931,09	2566,00
931,53	2570,00
931,96	2523,50
932,39	2631,00
932,83	2606,00
933,26	2670,00
933,70	2557,00
934,13	2613,50
934,56	2616,00
935,00	2586,50
935,43	2579,50
935,86	2538,50
936,30	2542,00
936,73	2544,00
937,16	2558,50
937,60	2541,50
938,03	2572,50
938,46	2540,00
938,90	2556,00
939,33	2585,00
939,76	2529,00
940,19	2565,00
940,63	2595,50
941,06	2644,50
941,49	2541,00
941,93	2593,00
942,36	2553,00
942,79	2546,00
943,23	2571,50
943,66	2540,50
944,09	2532,50
944,52	2576,50
944,96	2574,50
945,39	2580,50
945,82	2566,00
946,26	2565,00
946,69	2570,00
947,12	2599,00
947,55	2573,50
947,99	2552,00
948,42	2591,00
948,85	2526,50
949,28	2523,00
949,72	2521,00
950,15	2651,00
950,58	2604,00
951,01	2560,00
951,45	2548,50
951,88	2582,00
952,31	2529,50
952,74	2590,00
953,17	2550,50
953,61	2632,00
954,04	2529,50
954,47	2544,50
954,90	2541,50
955,33	2556,50
955,77	2558,00
956,20	2568,50
956,63	2536,00
957,06	2585,00
957,49	2662,50
957,93	2531,00
958,36	2568,50
958,79	2578,50
959,22	2543,50
959,65	2535,00
960,08	2549,00
960,52	2517,50
960,95	2542,00
961,38	2578,00
961,81	2572,50
962,24	2591,00
962,67	2583,50
963,11	2553,00
963,54	2549,50
963,97	2562,00
964,40	2566,50
964,83	2560,50
965,26	2538,00
965,69	2579,50
966,13	2559,50
966,56	2558,00
966,99	2579,50
967,42	2553,50
967,85	2550,50
968,28	2608,50
968,71	2718,50
969,14	2593,00
969,57	2547,50
970,01	2565,50
970,44	2537,00
970,87	2549,50
971,30	2568,50
971,73	2549,00
972,16	2561,00
972,59	2518,50
973,02	2539,00
973,45	2542,00
973,88	2569,50
974,31	2548,00
974,74	2591,00
975,17	2574,50
975,61	2549,00
976,04	2540,50
976,47	2538,00
976,90	2567,00
977,33	2543,50
977,76	2590,00
978,19	2570,50
978,62	2552,00
979,05	2579,50
979,48	2538,50
979,91	2591,00
980,34	2581,00
980,77	2545,00
981,20	2568,00
981,63	2607,50
982,06	2562,00
982,49	2550,00
982,92	2553,00
983,35	2563,50
983,78	2544,50
984,21	2597,00
984,64	2594,00
985,07	2536,50
985,50	2518,50
985,93	2554,50
986,36	2574,00
986,79	2557,50
987,22	2541,50
987,65	2568,00
988,08	2559,00
988,51	2562,00
988,94	2558,00
989,37	2590,50
989,80	2560,00
990,23	2553,00
990,66	2568,50
991,09	2566,00
991,51	2570,50
991,94	2613,50
992,37	2552,00
992,80	2542,00
993,23	2577,50
993,66	2547,00
994,09	2559,50
994,52	2603,00
994,95	2578,00
995,38	2561,50
995,81	2559,50
996,24	2526,00
996,67	2532,50
997,09	2501,50
997,52	2600,00
997,95	2603,00
998,38	2555,00
998,81	2562,00
999,24	2529,50
999,67	2606,50
1000,10	2555,50
1000,53	2582,50
1000,95	2612,50
1001,38	2542,50
1001,81	2552,00
1002,24	2580,00
1002,67	2580,00
1003,10	2578,50
1003,53	2558,50
1003,95	2584,50
1004,38	2542,50
1004,81	2573,50
1005,24	2562,50
1005,67	2597,00
1006,10	2543,50
1006,52	2516,00
1006,95	2576,50
1007,38	2559,50
1007,81	2539,00
1008,24	2506,50
1008,67	2548,00
1009,09	2535,00
1009,52	2702,00
1009,95	2602,00
1010,38	2583,00
1010,81	2583,00
1011,23	2566,50
1011,66	2594,00
1012,09	2554,50
1012,52	2579,00
1012,95	2551,00
1013,37	2592,50
1013,80	2587,50
1014,23	2538,00
1014,66	2611,00
1015,08	2516,00
1015,51	2586,00
1015,94	2529,00
1016,37	2562,50
1016,80	2541,50
1017,22	2560,00
1017,65	2556,00
1018,08	3339,50
1018,51	2555,50
1018,93	2523,50
1019,36	2657,00
1019,79	2598,00
1020,21	2571,50
1020,64	2557,00
1021,07	2557,00
1021,50	2569,50
1021,92	2571,50
1022,35	2599,50
1022,78	2547,00
1023,21	2699,00
1023,63	2611,00
1024,06	2596,50
1024,49	2577,50
1024,91	2573,00
1025,34	2575,00
1025,77	2583,00
1026,19	2541,00
1026,62	2542,00
1027,05	2634,50
1027,47	2578,00
1027,90	2581,50
1028,33	2557,00
1028,75	2566,50
1029,18	2541,50
1029,61	2629,00
1030,03	2565,50
1030,46	2579,00
1030,89	2585,00
1031,31	2601,50
1031,74	2539,00
1032,17	2569,50
1032,59	2611,50
1033,02	2546,50
1033,45	2601,00
1033,87	2537,50
1034,30	2551,00
1034,73	2575,00
1035,15	2581,00
1035,58	2538,50
1036,00	2612,00
1036,43	2539,00
1036,86	2558,50
1037,28	2571,00
1037,71	2510,00
1038,13	2585,00
1038,56	2590,50
1038,99	2576,00
1039,41	2590,00
1039,84	2611,00
1040,26	2570,50
1040,69	2562,50
1041,11	2581,00
1041,54	2547,50
1041,97	2596,50
1042,39	2603,00
1042,82	2576,50
1043,24	2600,00
1043,67	2558,50
1044,09	2591,50
1044,52	2547,50
1044,95	2548,50
1045,37	2555,50
1045,80	2539,00
1046,22	2567,50
1046,65	2579,00
1047,07	2539,50
1047,50	2571,00
1047,92	2583,00
1048,35	2535,00
1048,77	2593,00
1049,20	2587,00
1049,62	2579,00
1050,05	2554,50
1050,47	2556,00
1050,90	2577,00
1051,32	2597,00
1051,75	2600,50
1052,17	2607,50
1052,60	2552,50
1053,02	2595,00
1053,45	2513,00
1053,87	2573,50
1054,30	2530,00
1054,72	2554,50
1055,15	2547,50
1055,57	2568,50
1056,00	2577,00
1056,42	2619,00
1056,85	2597,00
1057,27	2610,50
1057,70	2565,50
1058,12	2718,00
1058,54	2527,50
1058,97	2570,50
1059,39	2588,00
1059,82	2542,00
1060,24	2558,00
1060,67	2564,50
1061,09	2584,50
1061,51	2566,50
1061,94	2550,50
1062,36	2590,50
1062,79	2625,50
1063,21	2580,50
1063,64	2561,50
1064,06	2545,50
1064,48	2592,00
1064,91	2600,00
1065,33	2563,00
1065,76	2539,50
1066,18	2541,50
1066,60	2604,50
1067,03	2572,00
1067,45	2561,50
1067,87	2557,50
1068,30	2540,00
1068,72	2608,00
1069,15	2576,50
1069,57	2547,00
1069,99	2529,50
1070,42	2579,50
1070,84	2589,50
1071,26	2608,00
1071,69	2539,00
1072,11	2586,00
1072,53	2556,00
1072,96	2541,50
1073,38	2531,50
1073,80	2588,00
1074,23	2543,00
1074,65	2520,50
1075,07	2569,00
1075,50	2559,00
1075,92	2565,50
1076,34	2543,00
1076,77	2527,00
1077,19	2546,50
1077,61	2585,50
1078,04	2563,50
1078,46	2599,00
1078,88	2603,00
1079,30	2514,00
1079,73	2550,50
1080,15	2565,50
1080,57	2555,00
1081,00	2588,00
1081,42	2577,50
1081,84	2544,50
1082,26	2566,00
1082,69	2576,50
1083,11	2557,00
1083,53	2565,00
1083,95	2583,50
1084,38	2595,00
1084,80	2549,50
1085,22	2562,50
1085,64	2610,50
1086,07	2542,50
1086,49	2542,50
1086,91	2596,50
1087,33	2528,00
1087,76	2589,00
1088,18	3658,00
1088,60	2566,00
1089,02	2546,50
1089,45	2552,00
1089,87	2551,50
1090,29	2594,50
1090,71	2555,50
1091,13	2524,50
1091,56	2573,00
1091,98	2548,00
1092,40	2542,00
1092,82	2568,50
1093,24	2561,00
1093,66	2567,50
1094,09	2564,50
1094,51	2566,00
1094,93	2569,50
1095,35	2540,00
1095,77	2546,00
1096,19	2560,00
1096,62	2584,50
1097,04	2536,50
1097,46	2553,00
1097,88	2536,00
1098,30	2586,50
1098,72	2572,00
1099,15	2597,50
1099,57	2557,00
1099,99	2565,00
1100,41	2534,00
1100,83	2555,00
1101,25	2539,00
1101,67	2565,00
1102,09	2529,50
1102,52	2547,50
1102,94	2541,00
1103,36	2574,50
1103,78	2567,00
1104,20	2555,50
1104,62	2602,50
1105,04	2495,50
1105,46	2559,00
1105,88	2536,00
1106,30	2527,50
1106,73	2556,00
1107,15	2510,00
1107,57	2510,50
1107,99	2585,50
1108,41	2520,00
1108,83	2565,00
1109,25	2557,50
1109,67	2572,50
1110,09	2528,50
1110,51	2514,50
1110,93	2507,00
1111,35	2535,50
1111,77	2517,50
1112,19	2519,00
1112,61	2510,50
1113,03	2549,00
1113,45	2521,00
1113,87	2528,00
1114,29	2549,00
1114,71	2563,00
1115,13	2519,50
1115,55	2543,00
1115,98	2522,50
1116,40	2562,50
1116,82	2526,50
1117,24	2526,00
1117,66	2532,50
1118,08	2165,50
1118,50	2174,00
1118,91	2174,00
1119,33	2177,00
>>>>>End Processed Spectral Data<<<<<
