SpectraSuite Data File
++++++++++++++++++++++++++++++++++++
Date: Tue Jul 12 15:54:51 EEST 2011
User: OO Maya
Dark Spectrum Present: No
Reference Spectrum Present: No
Number of Sampled Component Spectra: 1
Spectrometers: MAYP11278
Integration Time (usec): 50000 (MAYP11278)
Spectra Averaged: 40 (MAYP11278)
Boxcar Smoothing: 0 (MAYP11278)
Correct for Electrical Dark: No (MAYP11278)
Strobe/Lamp Enabled: No (MAYP11278)
Correct for Detector Non-linearity: No (MAYP11278)
Correct for Stray Light: No (MAYP11278)
Number of Pixels in Processed Spectrum: 2068
>>>>>Begin Processed Spectral Data<<<<<
200,00	3085,78
200,47	2997,95
200,95	2997,78
201,42	2995,05
201,89	3091,05
202,37	3093,58
202,84	3090,10
203,31	3091,02
203,79	3097,10
204,26	3088,48
204,73	3088,80
205,20	3087,22
205,68	3092,52
206,15	3092,60
206,62	3097,00
207,10	3092,10
207,57	3098,98
208,04	3090,75
208,51	3091,65
208,99	3107,45
209,46	3088,62
209,93	3087,78
210,41	3088,62
210,88	3087,32
211,35	3095,95
211,82	3097,75
212,30	3090,20
212,77	3093,65
213,24	3098,68
213,71	3099,58
214,19	3095,60
214,66	3086,30
215,13	3097,08
215,60	3088,18
216,08	3098,15
216,55	3100,80
217,02	3091,58
217,49	3089,60
217,96	3101,38
218,44	3090,40
218,91	3093,85
219,38	3110,82
219,85	3094,50
220,33	3095,05
220,80	3091,35
221,27	3099,92
221,74	3097,42
222,21	3093,60
222,69	3091,02
223,16	3096,95
223,63	3093,22
224,10	3091,92
224,57	3103,50
225,04	3095,88
225,52	3091,60
225,99	3104,95
226,46	3094,55
226,93	3104,32
227,40	3098,48
227,87	3095,00
228,35	3097,85
228,82	3098,20
229,29	3092,25
229,76	3096,18
230,23	3102,30
230,70	3088,48
231,18	3091,55
231,65	3092,90
232,12	3095,38
232,59	3103,45
233,06	3092,00
233,53	3102,62
234,00	3093,45
234,48	3100,48
234,95	3093,15
235,42	3101,25
235,89	3097,92
236,36	3093,50
236,83	3089,12
237,30	3094,50
237,77	3096,08
238,24	3095,08
238,72	3100,28
239,19	3094,75
239,66	3095,98
240,13	3099,22
240,60	3099,98
241,07	3094,68
241,54	3094,62
242,01	3093,68
242,48	3099,70
242,95	3104,55
243,42	3098,52
243,90	3095,98
244,37	3090,72
244,84	3096,38
245,31	3097,28
245,78	3118,22
246,25	3095,60
246,72	3092,05
247,19	3092,40
247,66	3088,70
248,13	3101,52
248,60	3106,55
249,07	3091,32
249,54	3097,02
250,01	3096,42
250,48	3096,45
250,95	3093,32
251,42	3090,22
251,89	3099,72
252,36	3103,32
252,83	3096,35
253,30	3092,95
253,77	3100,05
254,24	3101,80
254,71	3090,68
255,18	3090,18
255,65	3100,62
256,12	3105,05
256,59	3095,48
257,06	3101,42
257,53	3104,50
258,00	3090,15
258,47	3094,62
258,94	3095,70
259,41	3096,65
259,88	3099,30
260,35	3084,52
260,82	3096,85
261,29	3100,88
261,76	3097,08
262,23	3104,48
262,70	3096,48
263,17	3105,82
263,64	3102,85
264,11	3092,62
264,58	3101,38
265,05	3097,70
265,52	3095,32
265,99	3099,78
266,46	3100,65
266,93	3099,92
267,40	3094,42
267,87	3098,78
268,34	3101,82
268,81	3100,38
269,28	3114,92
269,74	3098,98
270,21	3093,25
270,68	3098,30
271,15	3100,12
271,62	3107,08
272,09	3094,88
272,56	3091,92
273,03	3106,20
273,50	3091,85
273,97	3099,12
274,44	3098,22
274,90	3089,40
275,37	3103,50
275,84	3102,02
276,31	3094,50
276,78	3095,02
277,25	3098,78
277,72	3103,38
278,19	3093,50
278,66	3096,20
279,12	3098,15
279,59	3097,02
280,06	3089,48
280,53	3090,82
281,00	3093,98
281,47	3100,38
281,94	3102,75
282,40	3093,92
282,87	3096,28
283,34	3090,05
283,81	3089,72
284,28	3085,52
284,75	3098,48
285,21	3114,70
285,68	3103,68
286,15	3101,00
286,62	3094,18
287,09	3096,00
287,56	3101,35
288,02	3102,25
288,49	3090,90
288,96	3093,05
289,43	3090,02
289,90	3124,12
290,36	3095,65
290,83	3093,62
291,30	3121,88
291,77	3104,45
292,24	3113,72
292,70	3093,85
293,17	3101,42
293,64	3093,30
294,11	3094,72
294,58	3099,35
295,04	3096,48
295,51	3091,62
295,98	3100,68
296,45	3093,92
296,91	3097,08
297,38	3098,02
297,85	3088,80
298,32	3099,08
298,79	3105,72
299,25	3095,28
299,72	3102,15
300,19	3086,05
300,66	3105,92
301,12	3090,80
301,59	3098,80
302,06	3092,92
302,52	3103,55
302,99	3110,45
303,46	3093,00
303,93	3105,58
304,39	3094,42
304,86	3100,10
305,33	3098,48
305,80	3092,28
306,26	3097,48
306,73	3097,85
307,20	3108,55
307,66	3106,70
308,13	3100,50
308,60	3100,28
309,07	3101,22
309,53	3094,88
310,00	3108,92
310,47	3096,72
310,93	3099,65
311,40	3092,70
311,87	3099,50
312,33	3102,60
312,80	3101,82
313,27	3093,32
313,73	3099,65
314,20	3100,78
314,67	3090,02
315,13	3096,32
315,60	3089,98
316,07	3098,28
316,53	3098,98
317,00	3100,35
317,47	3099,62
317,93	3093,72
318,40	3094,05
318,87	3098,25
319,33	3095,15
319,80	3103,50
320,26	3104,45
320,73	3099,32
321,20	3099,85
321,66	3101,08
322,13	3094,05
322,60	3102,78
323,06	3095,65
323,53	3111,68
323,99	3094,08
324,46	3096,10
324,93	3099,78
325,39	3093,78
325,86	3093,42
326,32	3100,60
326,79	3099,30
327,26	3100,72
327,72	3098,28
328,19	3098,78
328,65	3115,78
329,12	3096,00
329,59	3094,98
330,05	3090,10
330,52	3098,85
330,98	3111,20
331,45	3101,35
331,91	3097,90
332,38	3086,82
332,85	3090,32
333,31	3107,52
333,78	3094,62
334,24	3098,40
334,71	3088,12
335,17	3098,05
335,64	3095,55
336,10	3093,68
336,57	3095,32
337,03	3094,05
337,50	3099,85
337,96	3099,82
338,43	3100,50
338,90	3098,58
339,36	3093,85
339,83	3095,92
340,29	3091,28
340,76	3092,48
341,22	3099,75
341,69	3099,52
342,15	3106,50
342,62	3092,52
343,08	3108,25
343,55	3098,80
344,01	3098,48
344,48	3104,85
344,94	3099,12
345,41	3099,40
345,87	3121,58
346,34	3090,22
346,80	3095,62
347,27	3093,95
347,73	3099,55
348,19	3094,92
348,66	3096,48
349,12	3106,55
349,59	3100,65
350,05	3090,28
350,52	3091,52
350,98	3090,45
351,45	3100,82
351,91	3102,12
352,38	3094,58
352,84	3099,32
353,30	3099,10
353,77	3097,95
354,23	3094,00
354,70	3098,08
355,16	3092,18
355,63	3098,68
356,09	3098,92
356,55	3093,08
357,02	3093,78
357,48	3107,02
357,95	3092,55
358,41	3103,08
358,87	3098,12
359,34	3088,82
359,80	3099,60
360,27	3098,88
360,73	3098,42
361,19	3091,78
361,66	3098,95
362,12	3109,58
362,59	3101,50
363,05	3095,15
363,51	3100,12
363,98	3099,88
364,44	3099,68
364,91	3099,70
365,37	3099,35
365,83	3106,35
366,30	3095,10
366,76	3109,40
367,22	3090,12
367,69	3112,85
368,15	3102,68
368,61	3089,22
369,08	3091,68
369,54	3092,40
370,00	3097,05
370,47	3102,75
370,93	3105,20
371,39	3093,15
371,86	3097,88
372,32	3096,08
372,78	3094,75
373,25	3098,98
373,71	3113,82
374,17	3098,90
374,64	3091,42
375,10	3097,80
375,56	3092,15
376,03	3089,08
376,49	3098,90
376,95	3096,28
377,42	3096,38
377,88	3087,82
378,34	3091,25
378,80	3101,58
379,27	3091,22
379,73	3100,42
380,19	3099,00
380,66	3094,90
381,12	3095,30
381,58	3101,22
382,04	3092,05
382,51	3088,52
382,97	3099,25
383,43	3098,98
383,89	3090,35
384,36	3092,55
384,82	3098,38
385,28	3087,85
385,74	3104,28
386,21	3093,20
386,67	3093,95
387,13	3091,25
387,59	3098,22
388,06	3095,48
388,52	3096,90
388,98	3095,52
389,44	3095,25
389,91	3100,35
390,37	3106,50
390,83	3097,10
391,29	3104,98
391,75	3101,82
392,22	3089,55
392,68	3099,08
393,14	3094,38
393,60	3103,60
394,06	3098,60
394,53	3128,45
394,99	3096,88
395,45	3097,15
395,91	3095,42
396,37	3107,28
396,84	3090,80
397,30	3088,72
397,76	3103,90
398,22	3098,45
398,68	3106,08
399,14	3091,55
399,61	3102,38
400,07	3098,88
400,53	3099,80
400,99	3099,62
401,45	3095,72
401,91	3099,52
402,38	3095,15
402,84	3091,85
403,30	3111,45
403,76	3096,38
404,22	3103,00
404,68	3093,48
405,14	3100,48
405,61	3125,55
406,07	3089,92
406,53	3100,82
406,99	3100,05
407,45	3092,75
407,91	3097,32
408,37	3093,12
408,83	3090,05
409,29	3104,98
409,76	3088,40
410,22	3097,88
410,68	3094,12
411,14	3099,72
411,60	3097,78
412,06	3096,70
412,52	3093,08
412,98	3105,22
413,44	3097,52
413,90	3103,90
414,36	3108,28
414,83	3104,00
415,29	3089,85
415,75	3101,18
416,21	3099,32
416,67	3110,20
417,13	3098,02
417,59	3099,68
418,05	3099,95
418,51	3092,18
418,97	3104,98
419,43	3091,98
419,89	3104,32
420,35	3090,55
420,81	3103,85
421,27	3092,88
421,73	3089,30
422,19	3099,82
422,65	3095,00
423,11	3096,70
423,57	3101,18
424,03	3105,65
424,49	3094,00
424,96	3108,98
425,42	3100,35
425,88	3098,15
426,34	3108,28
426,80	3100,15
427,26	3097,00
427,72	3095,82
428,18	3095,65
428,64	3100,55
429,10	3094,22
429,56	3101,32
430,02	3089,80
430,47	3101,98
430,93	3093,82
431,39	3096,58
431,85	3093,58
432,31	3097,58
432,77	3098,90
433,23	3103,15
433,69	3096,02
434,15	3104,10
434,61	3094,62
435,07	3106,75
435,53	3093,52
435,99	3106,75
436,45	3100,55
436,91	3102,28
437,37	3091,12
437,83	3103,95
438,29	3099,90
438,75	3094,65
439,21	3098,28
439,67	3118,08
440,12	3089,12
440,58	3095,55
441,04	3105,28
441,50	3105,52
441,96	3096,52
442,42	3090,55
442,88	3097,90
443,34	3094,28
443,80	3102,20
444,26	3089,45
444,72	3100,40
445,17	3098,02
445,63	3089,22
446,09	3104,35
446,55	3100,88
447,01	3099,45
447,47	3092,80
447,93	3094,30
448,39	3123,95
448,85	3098,15
449,30	3103,45
449,76	3102,82
450,22	3091,20
450,68	3094,02
451,14	3113,70
451,60	3088,62
452,06	3095,72
452,51	3098,30
452,97	3089,32
453,43	3110,80
453,89	3099,05
454,35	3096,32
454,81	3095,50
455,26	3098,38
455,72	3097,85
456,18	3096,35
456,64	3093,40
457,10	3091,65
457,56	3100,35
458,01	3099,85
458,47	3096,60
458,93	3093,48
459,39	3090,65
459,85	3093,88
460,30	3099,00
460,76	3100,15
461,22	3092,02
461,68	3103,32
462,14	3097,22
462,59	3095,05
463,05	3098,78
463,51	3099,45
463,97	3095,62
464,43	3098,05
464,88	3101,05
465,34	3091,25
465,80	3105,32
466,26	3095,90
466,71	3093,42
467,17	3089,75
467,63	3095,95
468,09	3095,48
468,54	3095,95
469,00	3095,52
469,46	3090,30
469,92	3104,65
470,37	3102,95
470,83	3092,50
471,29	3089,10
471,75	3103,95
472,20	3092,58
472,66	3096,88
473,12	3098,80
473,58	3093,02
474,03	3093,42
474,49	3101,02
474,95	3096,68
475,40	3100,20
475,86	3101,08
476,32	3095,75
476,78	3097,88
477,23	3098,85
477,69	3097,20
478,15	3091,62
478,60	3101,58
479,06	3096,95
479,52	3093,90
479,97	3095,20
480,43	3095,80
480,89	3092,90
481,34	3094,02
481,80	3105,38
482,26	3096,38
482,71	3092,40
483,17	3095,98
483,63	3090,90
484,08	3100,78
484,54	3099,30
485,00	3096,45
485,45	3097,48
485,91	3100,22
486,37	3106,75
486,82	3098,32
487,28	3102,75
487,74	3091,70
488,19	3107,30
488,65	3103,52
489,10	3096,40
489,56	3096,22
490,02	3097,80
490,47	3099,68
490,93	3091,20
491,39	3097,95
491,84	3089,78
492,30	3096,45
492,75	3106,50
493,21	3100,22
493,67	3095,65
494,12	3088,38
494,58	3097,38
495,03	3086,80
495,49	3101,62
495,95	3090,38
496,40	3091,60
496,86	3094,65
497,31	3098,70
497,77	3095,70
498,23	3103,80
498,68	3091,68
499,14	3097,28
499,59	3091,05
500,05	3094,28
500,50	3088,32
500,96	3102,10
501,41	3099,80
501,87	3098,52
502,33	3091,98
502,78	3098,02
503,24	3093,92
503,69	3092,65
504,15	3099,88
504,60	3093,40
505,06	3095,45
505,51	3110,82
505,97	3104,60
506,42	3094,72
506,88	3099,25
507,33	3094,50
507,79	3114,55
508,24	3097,08
508,70	3093,50
509,15	3098,52
509,61	3094,28
510,06	3099,98
510,52	3096,35
510,97	3097,78
511,43	3095,62
511,88	3100,62
512,34	3095,28
512,79	3100,32
513,25	3099,20
513,70	3093,60
514,16	3097,22
514,61	3101,72
515,07	3094,30
515,52	3099,72
515,98	3100,52
516,43	3094,78
516,89	3093,28
517,34	3089,25
517,80	3094,92
518,25	3097,35
518,70	3095,72
519,16	3105,50
519,61	3105,18
520,07	3089,72
520,52	3089,02
520,98	3093,82
521,43	3100,30
521,89	3089,28
522,34	3105,50
522,79	3107,35
523,25	3090,98
523,70	3094,15
524,16	3103,28
524,61	3101,80
525,06	3115,20
525,52	3102,18
525,97	3096,75
526,43	3126,40
526,88	3094,18
527,33	3094,42
527,79	3089,88
528,24	3091,58
528,70	3098,98
529,15	3101,85
529,60	3099,55
530,06	3098,35
530,51	3088,22
530,97	3108,70
531,42	3101,42
531,87	3096,80
532,33	3107,50
532,78	3098,62
533,23	3101,18
533,69	3106,42
534,14	3102,42
534,59	3096,10
535,05	3095,78
535,50	3097,25
535,96	3101,60
536,41	3100,08
536,86	3095,70
537,32	3093,42
537,77	3099,82
538,22	3104,80
538,68	3090,25
539,13	3105,08
539,58	3096,80
540,03	3096,88
540,49	3098,82
540,94	3099,38
541,39	3097,15
541,85	3091,60
542,30	3096,42
542,75	3093,15
543,21	3097,22
543,66	3094,10
544,11	3101,02
544,57	3091,38
545,02	3103,08
545,47	3097,88
545,92	3098,20
546,38	3108,02
546,83	3099,98
547,28	3131,08
547,73	3089,15
548,19	3108,55
548,64	3099,55
549,09	3090,20
549,55	3100,28
550,00	3099,38
550,45	3095,20
550,90	3116,25
551,36	3088,55
551,81	3112,00
552,26	3105,22
552,71	3096,60
553,17	3095,35
553,62	3100,85
554,07	3099,68
554,52	3098,78
554,97	3102,05
555,43	3096,40
555,88	3099,90
556,33	3095,72
556,78	3093,92
557,24	3110,00
557,69	3096,38
558,14	3091,15
558,59	3098,80
559,04	3096,20
559,50	3111,02
559,95	3096,88
560,40	3093,40
560,85	3100,75
561,30	3093,45
561,76	3089,78
562,21	3099,00
562,66	3095,75
563,11	3107,95
563,56	3095,32
564,01	3104,75
564,47	3088,70
564,92	3097,18
565,37	3109,90
565,82	3094,55
566,27	3096,62
566,72	3092,72
567,18	3092,32
567,63	3092,15
568,08	3095,20
568,53	3096,18
568,98	3097,12
569,43	3095,55
569,88	3091,58
570,34	3098,22
570,79	3104,18
571,24	3092,35
571,69	3099,35
572,14	3094,20
572,59	3096,30
573,04	3098,75
573,49	3104,55
573,94	3095,00
574,40	3089,90
574,85	3096,58
575,30	3104,65
575,75	3092,72
576,20	3094,22
576,65	3102,20
577,10	3096,25
577,55	3095,98
578,00	3101,75
578,45	3100,38
578,91	3094,82
579,36	3097,45
579,81	3099,90
580,26	3093,65
580,71	3093,78
581,16	3098,32
581,61	3104,75
582,06	3102,75
582,51	3088,58
582,96	3096,08
583,41	3084,98
583,86	3102,48
584,31	3093,45
584,76	3095,70
585,21	3087,35
585,66	3105,42
586,11	3097,60
586,56	3092,15
587,01	3097,05
587,46	3100,22
587,92	3095,25
588,37	3094,82
588,82	3098,28
589,27	3096,20
589,72	3091,08
590,17	3097,58
590,62	3096,62
591,07	3094,50
591,52	3099,40
591,97	3090,25
592,42	3113,82
592,87	3094,38
593,32	3092,72
593,77	3093,42
594,22	3095,90
594,67	3104,60
595,12	3091,82
595,56	3098,02
596,01	3093,95
596,46	3092,82
596,91	3098,30
597,36	3100,18
597,81	3091,82
598,26	3089,42
598,71	3103,82
599,16	3094,55
599,61	3098,78
600,06	3095,30
600,51	3101,75
600,96	3095,38
601,41	3097,25
601,86	3105,85
602,31	3093,62
602,76	3089,88
603,21	3104,18
603,66	3101,88
604,11	3103,55
604,55	3099,58
605,00	3089,12
605,45	3096,02
605,90	3103,42
606,35	3091,82
606,80	3099,30
607,25	3104,62
607,70	3098,32
608,15	3103,25
608,60	3088,65
609,04	3117,58
609,49	3093,68
609,94	3096,90
610,39	3088,68
610,84	3087,15
611,29	3098,18
611,74	3095,22
612,19	3100,02
612,64	3096,10
613,08	3089,48
613,53	3096,82
613,98	3094,45
614,43	3094,95
614,88	3098,05
615,33	3095,42
615,78	3111,82
616,22	3103,70
616,67	3096,00
617,12	3093,78
617,57	3097,38
618,02	3088,85
618,47	3109,55
618,91	3099,98
619,36	3096,00
619,81	3118,12
620,26	3088,42
620,71	3089,72
621,16	3089,00
621,60	3088,82
622,05	3093,45
622,50	3093,10
622,95	3091,50
623,40	3094,40
623,84	3096,15
624,29	3101,05
624,74	3092,95
625,19	3091,15
625,64	3094,58
626,08	3100,30
626,53	3093,20
626,98	3100,65
627,43	3102,72
627,87	3096,15
628,32	3101,58
628,77	3104,30
629,22	3104,08
629,66	3094,82
630,11	3090,40
630,56	3104,32
631,01	3088,75
631,46	3093,02
631,90	3096,35
632,35	3091,62
632,80	3096,20
633,25	3100,05
633,69	3091,42
634,14	3100,95
634,59	3100,75
635,03	3087,58
635,48	3095,82
635,93	3095,05
636,38	3093,40
636,82	3099,00
637,27	3093,65
637,72	3102,42
638,16	3099,92
638,61	3105,30
639,06	3091,40
639,51	3094,35
639,95	3090,62
640,40	3091,75
640,85	3091,18
641,29	3091,12
641,74	3093,15
642,19	3089,22
642,63	3093,92
643,08	3093,52
643,53	3092,35
643,97	3099,78
644,42	3102,02
644,87	3093,68
645,31	3094,55
645,76	3089,38
646,21	3085,38
646,65	3098,10
647,10	3101,40
647,55	3091,45
647,99	3092,65
648,44	3092,92
648,89	3087,15
649,33	3093,02
649,78	3099,25
650,23	3090,90
650,67	3088,12
651,12	3092,05
651,56	3087,62
652,01	3096,50
652,46	3095,38
652,90	3096,88
653,35	3100,15
653,80	3095,20
654,24	3096,52
654,69	3088,12
655,13	3105,52
655,58	3096,60
656,03	3121,75
656,47	3089,10
656,92	3091,12
657,36	3092,18
657,81	3096,25
658,26	3089,25
658,70	3094,92
659,15	3091,02
659,59	3092,70
660,04	3095,32
660,48	3096,68
660,93	3092,78
661,38	3090,60
661,82	3100,62
662,27	3090,80
662,71	3094,45
663,16	3098,90
663,60	3100,88
664,05	3090,78
664,49	3095,82
664,94	3090,92
665,38	3120,60
665,83	3092,70
666,28	3100,32
666,72	3093,12
667,17	3090,12
667,61	3095,40
668,06	3091,20
668,50	3086,08
668,95	3098,95
669,39	3091,20
669,84	3092,65
670,28	3092,30
670,73	3087,42
671,17	3096,98
671,62	3088,12
672,06	3097,82
672,51	3097,12
672,95	3113,88
673,40	3104,68
673,84	3090,20
674,29	3098,20
674,73	3089,70
675,18	3109,50
675,62	3085,65
676,07	3087,92
676,51	3103,58
676,95	3091,58
677,40	3106,12
677,84	3108,95
678,29	3096,30
678,73	3094,90
679,18	3103,80
679,62	3116,20
680,07	3095,92
680,51	3096,32
680,96	3089,45
681,40	3089,05
681,84	3093,55
682,29	3092,28
682,73	3093,98
683,18	3090,80
683,62	3114,78
684,07	3092,35
684,51	3092,60
684,95	3096,52
685,40	3092,25
685,84	3093,88
686,29	3092,72
686,73	3087,62
687,17	3085,25
687,62	3096,05
688,06	3096,58
688,51	3098,92
688,95	3100,05
689,39	3096,80
689,84	3103,48
690,28	3096,80
690,73	3097,85
691,17	3097,85
691,61	3093,35
692,06	3090,45
692,50	3093,45
692,94	3090,90
693,39	3093,40
693,83	3092,68
694,27	3111,52
694,72	3098,38
695,16	3086,12
695,60	3093,72
696,05	3093,55
696,49	3089,08
696,94	3093,75
697,38	3087,72
697,82	3094,52
698,27	3093,30
698,71	3099,62
699,15	3099,42
699,59	3093,68
700,04	3093,88
700,48	3123,62
700,92	3095,82
701,37	3096,90
701,81	3108,20
702,25	3094,28
702,70	3092,95
703,14	3098,92
703,58	3090,38
704,03	3099,28
704,47	3100,60
704,91	3091,40
705,35	3091,98
705,80	3100,82
706,24	3102,28
706,68	3123,18
707,13	3087,60
707,57	3103,12
708,01	3091,08
708,45	3093,02
708,90	3097,10
709,34	3094,85
709,78	3093,45
710,22	3103,95
710,67	3101,75
711,11	3102,65
711,55	3086,72
711,99	3097,82
712,44	3094,12
712,88	3094,18
713,32	3100,08
713,76	3100,65
714,21	3094,05
714,65	3093,08
715,09	3095,12
715,53	3094,92
715,97	3090,70
716,42	3099,55
716,86	3094,98
717,30	3094,92
717,74	3091,08
718,18	3108,02
718,63	3095,42
719,07	3096,75
719,51	3106,60
719,95	3101,48
720,39	3096,78
720,84	3095,38
721,28	3091,68
721,72	3092,58
722,16	3089,38
722,60	3086,72
723,04	3097,62
723,49	3105,05
723,93	3089,08
724,37	3090,58
724,81	3095,88
725,25	3093,65
725,69	3089,98
726,14	3097,15
726,58	3090,38
727,02	3096,75
727,46	3094,48
727,90	3087,78
728,34	3086,32
728,78	3097,30
729,23	3086,50
729,67	3097,55
730,11	3088,50
730,55	3093,45
730,99	3093,90
731,43	3094,98
731,87	3108,72
732,31	3089,80
732,76	3104,68
733,20	3098,48
733,64	3093,78
734,08	3103,98
734,52	3091,12
734,96	3100,40
735,40	3087,72
735,84	3095,38
736,28	3097,45
736,72	3096,05
737,16	3095,15
737,61	3088,45
738,05	3098,40
738,49	3096,32
738,93	3092,90
739,37	3098,98
739,81	3097,90
740,25	3093,25
740,69	3113,38
741,13	3091,50
741,57	3096,40
742,01	3100,80
742,45	3101,10
742,89	3095,38
743,33	3093,55
743,77	3096,25
744,21	3088,62
744,65	3103,68
745,09	3098,32
745,53	3091,00
745,98	3098,20
746,42	3098,48
746,86	3094,48
747,30	3093,50
747,74	3088,38
748,18	3089,80
748,62	3094,02
749,06	3103,65
749,50	3098,55
749,94	3094,92
750,38	3100,85
750,82	3105,15
751,26	3084,98
751,70	3090,68
752,14	3087,38
752,58	3098,42
753,02	3094,20
753,45	3091,70
753,89	3096,92
754,33	3112,72
754,77	3096,38
755,21	3093,70
755,65	3088,65
756,09	3092,00
756,53	3092,20
756,97	3094,02
757,41	3104,68
757,85	3090,95
758,29	3094,40
758,73	3086,80
759,17	3093,65
759,61	3088,60
760,05	3093,20
760,49	3095,28
760,93	3102,62
761,37	3095,22
761,80	3104,05
762,24	3094,35
762,68	3093,25
763,12	3094,55
763,56	3092,72
764,00	3088,98
764,44	3093,15
764,88	3097,05
765,32	3093,88
765,76	3098,52
766,20	3103,60
766,63	3094,22
767,07	3087,88
767,51	3092,18
767,95	3100,10
768,39	3094,40
768,83	3089,82
769,27	3090,02
769,71	3096,55
770,14	3088,28
770,58	3087,75
771,02	3090,25
771,46	3093,18
771,90	3094,40
772,34	3095,95
772,78	3099,60
773,21	3095,35
773,65	3105,62
774,09	3090,32
774,53	3096,02
774,97	3090,00
775,41	3088,58
775,84	3096,05
776,28	3095,22
776,72	3096,35
777,16	3087,62
777,60	3092,90
778,04	3091,40
778,47	3083,78
778,91	3094,25
779,35	3089,08
779,79	3096,42
780,23	3094,52
780,66	3087,85
781,10	3093,55
781,54	3092,30
781,98	3098,20
782,42	3096,82
782,85	3091,95
783,29	3095,62
783,73	3112,45
784,17	3103,70
784,61	3094,45
785,04	3102,08
785,48	3096,85
785,92	3088,30
786,36	3096,65
786,79	3089,25
787,23	3093,15
787,67	3098,55
788,11	3100,15
788,54	3094,20
788,98	3089,92
789,42	3093,82
789,86	3088,70
790,29	3099,48
790,73	3099,28
791,17	3101,42
791,60	3090,65
792,04	3090,25
792,48	3097,18
792,92	3090,08
793,35	3092,65
793,79	3091,72
794,23	3095,88
794,67	3087,30
795,10	3092,08
795,54	3100,68
795,98	3091,28
796,41	3094,68
796,85	3091,38
797,29	3124,45
797,72	3099,25
798,16	3096,20
798,60	3098,35
799,03	3096,72
799,47	3088,98
799,91	3097,78
800,34	3094,68
800,78	3095,90
801,22	3092,52
801,65	3089,18
802,09	3093,52
802,53	3103,50
802,96	3096,72
803,40	3089,42
803,84	3105,40
804,27	3097,62
804,71	3092,05
805,15	3095,45
805,58	3095,65
806,02	3091,32
806,46	3098,88
806,89	3109,25
807,33	3098,85
807,76	3095,40
808,20	3093,35
808,64	3093,72
809,07	3106,52
809,51	3109,08
809,95	3107,20
810,38	3100,05
810,82	3108,00
811,25	3091,82
811,69	3095,55
812,13	3091,18
812,56	3099,58
813,00	3093,22
813,43	3092,45
813,87	3089,22
814,30	3096,95
814,74	3102,78
815,18	3117,68
815,61	3091,25
816,05	3089,75
816,48	3097,95
816,92	3107,55
817,35	3100,22
817,79	3095,42
818,23	3101,45
818,66	3096,58
819,10	3097,92
819,53	3090,22
819,97	3090,88
820,40	3091,52
820,84	3097,78
821,27	3096,02
821,71	3102,40
822,14	3094,82
822,58	3098,08
823,01	3101,82
823,45	3094,72
823,88	3095,90
824,32	3091,68
824,75	3096,42
825,19	3090,80
825,63	3106,12
826,06	3088,52
826,50	3096,15
826,93	3096,45
827,37	3090,48
827,80	3095,30
828,23	3094,92
828,67	3096,82
829,10	3096,48
829,54	3089,85
829,97	3092,45
830,41	3086,12
830,84	3094,92
831,28	3097,70
831,71	3103,45
832,15	3091,22
832,58	3098,32
833,02	3097,70
833,45	3091,10
833,89	3105,82
834,32	3092,92
834,75	3111,32
835,19	3101,58
835,62	3099,68
836,06	3088,45
836,49	3095,75
836,93	3093,60
837,36	3099,68
837,79	3098,35
838,23	3095,20
838,66	3091,60
839,10	3100,10
839,53	3094,38
839,97	3094,15
840,40	3093,18
840,83	3101,82
841,27	3092,32
841,70	3091,70
842,14	3097,98
842,57	3093,82
843,00	3108,32
843,44	3109,28
843,87	3096,18
844,31	3102,02
844,74	3087,28
845,17	3090,78
845,61	3089,52
846,04	3091,55
846,47	3099,18
846,91	3095,95
847,34	3100,30
847,77	3097,15
848,21	3089,82
848,64	3098,40
849,08	3094,08
849,51	3102,58
849,94	3090,50
850,38	3090,58
850,81	3095,48
851,24	3088,50
851,68	3091,62
852,11	3093,02
852,54	3098,60
852,98	3101,50
853,41	3099,85
853,84	3094,08
854,28	3105,18
854,71	3089,68
855,14	3097,12
855,57	3101,62
856,01	3092,32
856,44	3093,80
856,87	3099,25
857,31	3087,70
857,74	3097,10
858,17	3089,02
858,61	3091,65
859,04	3100,50
859,47	3104,65
859,90	3095,30
860,34	3097,72
860,77	3095,60
861,20	3087,10
861,63	3104,02
862,07	3084,05
862,50	3089,20
862,93	3093,58
863,37	3093,75
863,80	3096,65
864,23	3097,85
864,66	3091,05
865,10	3094,12
865,53	3097,35
865,96	3090,70
866,39	3094,08
866,82	3099,72
867,26	3088,95
867,69	3095,25
868,12	3094,42
868,55	3086,65
868,99	3094,55
869,42	3087,05
869,85	3098,08
870,28	3087,45
870,71	3095,22
871,15	3095,35
871,58	3090,32
872,01	3096,70
872,44	3095,38
872,87	3103,32
873,31	3109,70
873,74	3088,38
874,17	3094,15
874,60	3093,78
875,03	3088,75
875,47	3096,28
875,90	3096,98
876,33	3092,92
876,76	3099,82
877,19	3099,02
877,62	3094,08
878,06	3090,02
878,49	3101,30
878,92	3085,35
879,35	3096,40
879,78	3092,35
880,21	3096,70
880,64	3094,75
881,08	3094,70
881,51	3096,85
881,94	3091,58
882,37	3108,45
882,80	3090,38
883,23	3087,92
883,66	3094,75
884,09	3094,58
884,53	3100,55
884,96	3093,02
885,39	3094,38
885,82	3094,75
886,25	3093,10
886,68	3088,68
887,11	3099,25
887,54	3092,75
887,97	3098,52
888,40	3099,88
888,84	3093,20
889,27	3090,00
889,70	3105,98
890,13	3091,00
890,56	3091,25
890,99	3093,40
891,42	3090,52
891,85	3116,98
892,28	3086,78
892,71	3100,48
893,14	3092,32
893,57	3100,15
894,00	3099,35
894,43	3086,32
894,86	3089,20
895,29	3094,02
895,73	3088,85
896,16	3092,10
896,59	3094,95
897,02	3092,32
897,45	3098,65
897,88	3093,60
898,31	3090,30
898,74	3095,95
899,17	3098,20
899,60	3089,85
900,03	3087,70
900,46	3090,40
900,89	3094,65
901,32	3100,78
901,75	3090,70
902,18	3089,85
902,61	3090,88
903,04	3099,00
903,47	3096,35
903,90	3091,25
904,33	3105,38
904,76	3107,55
905,19	3093,02
905,62	3092,05
906,05	3105,45
906,48	3090,20
906,91	3097,40
907,34	3090,42
907,76	3093,10
908,19	3088,15
908,62	3101,85
909,05	3095,95
909,48	3098,75
909,91	3095,50
910,34	3093,50
910,77	3097,90
911,20	3102,55
911,63	3092,72
912,06	3085,92
912,49	3096,12
912,92	3094,08
913,35	3093,00
913,78	3090,00
914,21	3094,05
914,63	3093,30
915,06	3091,45
915,49	3096,40
915,92	3096,80
916,35	3091,10
916,78	3087,28
917,21	3087,35
917,64	3089,45
918,07	3090,40
918,50	3098,60
918,92	3092,50
919,35	3104,08
919,78	3090,55
920,21	3098,45
920,64	3089,25
921,07	3094,22
921,50	3091,45
921,93	3098,35
922,35	3098,92
922,78	3093,42
923,21	3105,45
923,64	3096,02
924,07	3089,90
924,50	3090,18
924,92	3086,50
925,35	3094,98
925,78	3104,25
926,21	3099,08
926,64	3086,98
927,07	3099,32
927,49	3087,98
927,92	3099,30
928,35	3109,60
928,78	3092,68
929,21	3098,55
929,64	3086,32
930,06	3111,72
930,49	3093,18
930,92	3088,55
931,35	3102,15
931,78	3090,18
932,20	3096,12
932,63	3099,70
933,06	3090,48
933,49	3098,65
933,92	3085,75
934,34	3106,65
934,77	3102,32
935,20	3113,28
935,63	3092,70
936,05	3100,75
936,48	3099,85
936,91	3097,68
937,34	3098,20
937,76	3086,25
938,19	3093,20
938,62	3090,82
939,05	3097,20
939,47	3088,42
939,90	3100,10
940,33	3092,45
940,76	3090,42
941,18	3097,12
941,61	3088,70
942,04	3097,38
942,47	3099,45
942,89	3110,28
943,32	3092,30
943,75	3103,05
944,17	3089,65
944,60	3093,25
945,03	3097,18
945,46	3088,02
945,88	3088,55
946,31	3097,70
946,74	3089,48
947,16	3096,85
947,59	3094,00
948,02	3094,32
948,44	3096,00
948,87	3102,05
949,30	3091,70
949,72	3093,08
950,15	3097,12
950,58	3088,00
951,00	3090,70
951,43	3088,95
951,86	3110,45
952,28	3102,45
952,71	3094,52
953,14	3092,80
953,56	3097,40
953,99	3085,52
954,42	3100,58
954,84	3092,35
955,27	3106,50
955,70	3086,28
956,12	3090,30
956,55	3092,60
956,98	3090,32
957,40	3091,82
957,83	3097,28
958,25	3086,88
958,68	3098,38
959,11	3115,72
959,53	3089,08
959,96	3097,80
960,38	3095,88
960,81	3093,32
961,24	3089,72
961,66	3093,30
962,09	3085,20
962,51	3091,32
962,94	3100,25
963,37	3096,05
963,79	3100,28
964,22	3098,05
964,64	3092,60
965,07	3094,65
965,49	3090,38
965,92	3094,50
966,35	3094,40
966,77	3090,12
967,20	3097,55
967,62	3092,48
968,05	3091,82
968,47	3099,25
968,90	3088,80
969,32	3090,62
969,75	3103,02
970,17	3124,30
970,60	3097,62
971,03	3093,18
971,45	3096,82
971,88	3089,12
972,30	3090,18
972,73	3098,05
973,15	3091,78
973,58	3094,55
974,00	3088,30
974,43	3090,55
974,85	3092,52
975,28	3094,05
975,70	3094,28
976,13	3097,20
976,55	3097,02
976,98	3089,82
977,40	3091,60
977,83	3087,00
978,25	3094,52
978,68	3088,35
979,10	3100,90
979,53	3093,45
979,95	3092,40
980,37	3093,85
980,80	3090,12
981,22	3098,35
981,65	3096,72
982,07	3091,15
982,50	3095,75
982,92	3103,05
983,35	3093,55
983,77	3094,45
984,20	3093,20
984,62	3091,52
985,04	3091,02
985,47	3099,95
985,89	3099,95
986,32	3088,02
986,74	3087,20
987,17	3090,80
987,59	3097,12
988,01	3093,75
988,44	3088,52
988,86	3097,70
989,29	3093,52
989,71	3093,42
990,13	3092,05
990,56	3097,98
990,98	3095,12
991,41	3090,62
991,83	3096,28
992,25	3093,35
992,68	3096,15
993,10	3104,00
993,53	3090,80
993,95	3087,60
994,37	3092,82
994,80	3091,80
995,22	3091,40
995,64	3098,70
996,07	3100,68
996,49	3095,55
996,91	3092,70
997,34	3086,65
997,76	3088,22
998,18	3083,68
998,61	3101,20
999,03	3099,68
999,45	3092,60
999,88	3094,78
1000,30	3088,98
1000,72	3104,75
1001,15	3094,10
1001,57	3094,40
1001,99	3101,40
1002,42	3088,28
1002,84	3092,68
1003,26	3098,92
1003,69	3094,02
1004,11	3096,28
1004,53	3093,38
1004,96	3097,60
1005,38	3087,90
1005,80	3093,95
1006,22	3097,48
1006,65	3102,30
1007,07	3094,18
1007,49	3090,35
1007,92	3097,15
1008,34	3092,80
1008,76	3091,10
1009,18	3086,98
1009,61	3095,48
1010,03	3092,42
1010,45	3117,05
1010,87	3100,32
1011,30	3096,92
1011,72	3097,18
1012,14	3096,30
1012,56	3099,00
1012,99	3092,82
1013,41	3096,48
1013,83	3097,30
1014,25	3094,90
1014,68	3097,22
1015,10	3090,10
1015,52	3100,92
1015,94	3089,22
1016,37	3098,68
1016,79	3092,05
1017,21	3095,88
1017,63	3088,65
1018,05	3095,85
1018,48	3090,58
1018,90	3091,72
1019,32	3095,20
1019,74	3084,85
1020,16	3113,00
1020,59	3101,18
1021,01	3097,60
1021,43	3092,42
1021,85	3093,28
1022,27	3094,90
1022,69	3095,30
1023,12	3098,90
1023,54	3092,02
1023,96	3118,15
1024,38	3104,08
1024,80	3098,85
1025,22	3098,55
1025,65	3096,40
1026,07	3093,20
1026,49	3099,10
1026,91	3092,40
1027,33	3090,68
1027,75	3110,15
1028,17	3098,55
1028,60	3095,05
1029,02	3093,15
1029,44	3095,22
1029,86	3091,20
1030,28	3108,35
1030,70	3094,30
1031,12	3094,42
1031,54	3097,30
1031,97	3102,82
1032,39	3088,78
1032,81	3096,18
1033,23	3100,48
1033,65	3093,42
1034,07	3099,38
1034,49	3090,40
1034,91	3091,18
1035,33	3097,72
1035,75	3099,22
1036,18	3089,52
1036,60	3103,78
1037,02	3090,88
1037,44	3091,02
1037,86	3094,58
1038,28	3086,70
1038,70	3101,32
1039,12	3100,52
1039,54	3099,90
1039,96	3101,38
1040,38	3105,05
1040,80	3093,78
1041,22	3096,62
1041,64	3096,35
1042,06	3091,55
1042,48	3103,00
1042,90	3106,65
1043,32	3097,58
1043,74	3100,70
1044,17	3095,98
1044,59	3099,92
1045,01	3088,85
1045,43	3092,20
1045,85	3093,35
1046,27	3087,90
1046,69	3096,38
1047,11	3097,52
1047,53	3091,30
1047,95	3097,15
1048,37	3101,85
1048,79	3089,82
1049,21	3100,75
1049,63	3100,18
1050,05	3101,82
1050,47	3094,22
1050,89	3092,95
1051,31	3099,30
1051,72	3097,42
1052,14	3103,98
1052,56	3103,58
1052,98	3096,50
1053,40	3100,48
1053,82	3082,78
1054,24	3095,90
1054,66	3085,42
1055,08	3094,58
1055,50	3093,15
1055,92	3097,28
1056,34	3096,52
1056,76	3108,88
1057,18	3103,65
1057,60	3101,48
1058,02	3096,22
1058,44	3122,18
1058,86	3088,95
1059,28	3099,08
1059,69	3099,75
1060,11	3095,88
1060,53	3092,90
1060,95	3091,42
1061,37	3101,22
1061,79	3096,65
1062,21	3091,72
1062,63	3100,85
1063,05	3106,75
1063,47	3098,35
1063,88	3093,30
1064,30	3090,08
1064,72	3101,55
1065,14	3101,98
1065,56	3092,48
1065,98	3087,78
1066,40	3088,48
1066,82	3101,60
1067,23	3097,00
1067,65	3097,75
1068,07	3098,12
1068,49	3090,90
1068,91	3106,25
1069,33	3096,92
1069,75	3092,18
1070,16	3086,90
1070,58	3100,38
1071,00	3100,45
1071,42	3102,68
1071,84	3094,58
1072,26	3099,78
1072,67	3093,40
1073,09	3090,12
1073,51	3087,88
1073,93	3100,65
1074,35	3092,70
1074,77	3089,20
1075,18	3090,15
1075,60	3093,75
1076,02	3096,10
1076,44	3092,25
1076,86	3090,80
1077,27	3094,45
1077,69	3101,40
1078,11	3092,60
1078,53	3098,90
1078,94	3104,42
1079,36	3083,95
1079,78	3095,80
1080,20	3092,55
1080,62	3096,88
1081,03	3098,48
1081,45	3094,25
1081,87	3091,85
1082,29	3097,68
1082,70	3095,90
1083,12	3093,90
1083,54	3092,80
1083,96	3094,45
1084,37	3101,08
1084,79	3093,45
1085,21	3092,10
1085,63	3102,62
1086,04	3087,68
1086,46	3091,28
1086,88	3101,05
1087,30	3085,60
1087,71	3100,40
1088,13	3427,78
1088,55	3092,22
1088,96	3091,08
1089,38	3093,92
1089,80	3094,10
1090,22	3101,85
1090,63	3093,58
1091,05	3088,62
1091,47	3097,18
1091,88	3093,95
1092,30	3091,28
1092,72	3093,88
1093,13	3092,55
1093,55	3094,58
1093,97	3093,25
1094,38	3093,45
1094,80	3094,45
1095,22	3093,20
1095,63	3092,18
1096,05	3093,20
1096,47	3098,12
1096,88	3090,22
1097,30	3095,02
1097,72	3091,45
1098,13	3098,78
1098,55	3097,58
1098,97	3101,48
1099,38	3092,75
1099,80	3092,32
1100,21	3091,15
1100,63	3090,92
1101,05	3089,38
1101,46	3094,00
1101,88	3088,40
1102,30	3090,68
1102,71	3093,38
1103,13	3093,10
1103,54	3097,78
1103,96	3092,75
1104,38	3104,90
1104,79	3084,28
1105,21	3094,05
1105,62	3090,25
1106,04	3091,00
1106,46	3093,25
1106,87	3084,58
1107,29	3086,95
1107,70	3099,08
1108,12	3085,20
1108,54	3098,85
1108,95	3095,28
1109,37	3095,15
1109,78	3082,95
1110,20	3091,92
1110,61	3085,78
1111,03	3085,78
1111,44	3085,78
1111,86	3085,78
1112,28	3085,78
1112,69	3085,78
1113,11	3085,78
1113,52	3085,78
1113,94	3085,78
1114,35	3085,78
1114,77	3085,78
1115,18	3085,78
1115,60	3085,78
1116,01	3085,78
1116,43	3085,78
1116,84	3085,78
1117,26	3085,78
1117,67	3085,78
1118,09	3085,78
1118,50	3085,78
1118,92	3085,78
>>>>>End Processed Spectral Data<<<<<
