SpectraSuite Data File
++++++++++++++++++++++++++++++++++++
Date: Tue Jul 12 15:53:06 EEST 2011
User: OO Maya
Dark Spectrum Present: No
Reference Spectrum Present: No
Number of Sampled Component Spectra: 1
Spectrometers: MAYP11278
Integration Time (usec): 27000 (MAYP11278)
Spectra Averaged: 40 (MAYP11278)
Boxcar Smoothing: 0 (MAYP11278)
Correct for Electrical Dark: No (MAYP11278)
Strobe/Lamp Enabled: No (MAYP11278)
Correct for Detector Non-linearity: No (MAYP11278)
Correct for Stray Light: No (MAYP11278)
Number of Pixels in Processed Spectrum: 2068
>>>>>Begin Processed Spectral Data<<<<<
200,00	3042,80
200,47	2998,05
200,95	2997,75
201,42	2994,62
201,89	3045,28
202,37	3047,12
202,84	3042,82
203,31	3046,12
203,79	3049,52
204,26	3044,22
204,73	3044,55
205,20	3044,85
205,68	3048,58
206,15	3046,15
206,62	3050,95
207,10	3045,90
207,57	3051,20
208,04	3046,05
208,51	3046,90
208,99	3054,05
209,46	3045,30
209,93	3042,82
210,41	3045,48
210,88	3044,68
211,35	3047,28
211,82	3048,72
212,30	3046,78
212,77	3046,62
213,24	3049,18
213,71	3048,52
214,19	3050,60
214,66	3044,32
215,13	3047,28
215,60	3044,70
216,08	3049,38
216,55	3052,18
217,02	3046,40
217,49	3047,18
217,96	3052,28
218,44	3044,12
218,91	3050,68
219,38	3057,28
219,85	3047,90
220,33	3048,08
220,80	3046,08
221,27	3050,12
221,74	3050,02
222,21	3046,75
222,69	3047,45
223,16	3049,40
223,63	3048,25
224,10	3046,00
224,57	3052,95
225,04	3049,35
225,52	3046,30
225,99	3053,25
226,46	3048,32
226,93	3052,95
227,40	3048,20
227,87	3051,35
228,35	3050,35
228,82	3048,38
229,29	3044,58
229,76	3047,98
230,23	3054,12
230,70	3043,02
231,18	3046,32
231,65	3046,42
232,12	3047,35
232,59	3051,78
233,06	3045,45
233,53	3051,65
234,00	3047,20
234,48	3050,78
234,95	3045,72
235,42	3050,80
235,89	3049,32
236,36	3045,58
236,83	3046,38
237,30	3046,42
237,77	3045,95
238,24	3050,25
238,72	3050,88
239,19	3048,00
239,66	3048,22
240,13	3051,30
240,60	3051,05
241,07	3048,92
241,54	3049,52
242,01	3045,88
242,48	3049,50
242,95	3054,55
243,42	3047,92
243,90	3048,65
244,37	3045,75
244,84	3046,05
245,31	3049,10
245,78	3059,12
246,25	3050,55
246,72	3046,42
247,19	3046,55
247,66	3046,60
248,13	3050,42
248,60	3055,80
249,07	3047,60
249,54	3051,30
250,01	3049,08
250,48	3049,55
250,95	3049,20
251,42	3045,95
251,89	3050,32
252,36	3052,42
252,83	3048,10
253,30	3049,08
253,77	3050,00
254,24	3052,28
254,71	3044,78
255,18	3046,72
255,65	3051,40
256,12	3053,30
256,59	3047,70
257,06	3051,42
257,53	3051,30
258,00	3046,48
258,47	3048,72
258,94	3048,70
259,41	3049,78
259,88	3049,12
260,35	3043,75
260,82	3050,25
261,29	3049,92
261,76	3049,30
262,23	3052,45
262,70	3048,25
263,17	3055,48
263,64	3053,05
264,11	3046,90
264,58	3051,05
265,05	3049,88
265,52	3047,55
265,99	3049,45
266,46	3050,18
266,93	3050,30
267,40	3044,72
267,87	3050,18
268,34	3051,52
268,81	3052,00
269,28	3058,30
269,74	3049,05
270,21	3047,25
270,68	3049,62
271,15	3051,48
271,62	3051,75
272,09	3047,45
272,56	3044,20
273,03	3053,88
273,50	3046,02
273,97	3048,68
274,44	3048,52
274,90	3044,48
275,37	3053,38
275,84	3051,65
276,31	3047,20
276,78	3048,80
277,25	3050,10
277,72	3051,70
278,19	3046,58
278,66	3048,80
279,12	3050,68
279,59	3050,80
280,06	3043,42
280,53	3045,70
281,00	3047,28
281,47	3049,02
281,94	3051,50
282,40	3047,45
282,87	3050,78
283,34	3046,15
283,81	3045,30
284,28	3044,52
284,75	3048,65
285,21	3061,82
285,68	3049,85
286,15	3050,12
286,62	3047,02
287,09	3048,72
287,56	3051,15
288,02	3051,95
288,49	3046,00
288,96	3048,00
289,43	3044,88
289,90	3062,88
290,36	3048,12
290,83	3047,42
291,30	3059,52
291,77	3053,68
292,24	3058,22
292,70	3048,45
293,17	3053,10
293,64	3048,12
294,11	3046,88
294,58	3048,50
295,04	3049,38
295,51	3048,22
295,98	3049,98
296,45	3048,72
296,91	3050,18
297,38	3049,68
297,85	3045,10
298,32	3050,00
298,79	3054,32
299,25	3047,40
299,72	3052,70
300,19	3043,45
300,66	3053,75
301,12	3046,18
301,59	3050,12
302,06	3048,60
302,52	3050,25
302,99	3056,12
303,46	3049,08
303,93	3053,85
304,39	3047,75
304,86	3050,20
305,33	3051,70
305,80	3045,85
306,26	3050,40
306,73	3050,15
307,20	3055,38
307,66	3053,62
308,13	3050,58
308,60	3049,45
309,07	3051,52
309,53	3047,02
310,00	3055,95
310,47	3047,50
310,93	3050,05
311,40	3046,30
311,87	3052,30
312,33	3051,35
312,80	3051,12
313,27	3047,42
313,73	3053,52
314,20	3052,80
314,67	3046,60
315,13	3046,62
315,60	3046,20
316,07	3049,30
316,53	3048,70
317,00	3050,22
317,47	3051,25
317,93	3046,08
318,40	3048,32
318,87	3049,55
319,33	3049,02
319,80	3051,82
320,26	3051,25
320,73	3050,75
321,20	3051,72
321,66	3050,92
322,13	3047,65
322,60	3051,82
323,06	3048,45
323,53	3055,88
323,99	3046,55
324,46	3047,55
324,93	3050,40
325,39	3046,68
325,86	3047,35
326,32	3053,85
326,79	3049,52
327,26	3051,72
327,72	3051,72
328,19	3049,08
328,65	3060,42
329,12	3049,58
329,59	3048,72
330,05	3046,08
330,52	3050,48
330,98	3056,35
331,45	3050,82
331,91	3049,15
332,38	3044,08
332,85	3045,80
333,31	3056,62
333,78	3046,12
334,24	3050,70
334,71	3047,10
335,17	3049,15
335,64	3047,85
336,10	3046,60
336,57	3047,00
337,03	3047,72
337,50	3049,88
337,96	3050,85
338,43	3050,52
338,90	3050,65
339,36	3049,32
339,83	3047,92
340,29	3047,32
340,76	3047,18
341,22	3050,12
341,69	3050,58
342,15	3055,30
342,62	3046,55
343,08	3056,48
343,55	3051,78
344,01	3050,08
344,48	3053,55
344,94	3049,75
345,41	3052,20
345,87	3063,45
346,34	3046,42
346,80	3049,12
347,27	3046,82
347,73	3050,90
348,19	3048,08
348,66	3048,65
349,12	3054,82
349,59	3051,18
350,05	3047,40
350,52	3045,82
350,98	3046,45
351,45	3049,28
351,91	3052,28
352,38	3048,28
352,84	3048,52
353,30	3052,02
353,77	3050,10
354,23	3049,28
354,70	3050,18
355,16	3048,72
355,63	3048,32
356,09	3050,42
356,55	3046,18
357,02	3045,78
357,48	3053,82
357,95	3046,85
358,41	3052,82
358,87	3050,05
359,34	3045,25
359,80	3048,00
360,27	3052,00
360,73	3048,52
361,19	3047,00
361,66	3050,82
362,12	3054,68
362,59	3050,02
363,05	3048,22
363,51	3049,10
363,98	3049,48
364,44	3050,72
364,91	3051,18
365,37	3049,12
365,83	3055,05
366,30	3045,88
366,76	3055,62
367,22	3046,52
367,69	3056,52
368,15	3052,60
368,61	3045,18
369,08	3046,15
369,54	3048,25
370,00	3047,68
370,47	3051,68
370,93	3052,50
371,39	3047,08
371,86	3049,30
372,32	3049,18
372,78	3047,85
373,25	3051,00
373,71	3058,08
374,17	3050,88
374,64	3045,75
375,10	3049,12
375,56	3047,75
376,03	3044,50
376,49	3050,20
376,95	3048,55
377,42	3047,98
377,88	3047,82
378,34	3046,10
378,80	3051,78
379,27	3045,35
379,73	3051,85
380,19	3050,00
380,66	3045,95
381,12	3045,55
381,58	3049,90
382,04	3044,85
382,51	3044,48
382,97	3050,52
383,43	3048,32
383,89	3047,72
384,36	3047,40
384,82	3049,12
385,28	3043,10
385,74	3051,18
386,21	3047,92
386,67	3048,22
387,13	3044,82
387,59	3050,00
388,06	3049,12
388,52	3048,12
388,98	3048,42
389,44	3050,35
389,91	3050,05
390,37	3053,45
390,83	3049,45
391,29	3052,62
391,75	3053,38
392,22	3045,62
392,68	3049,08
393,14	3048,55
393,60	3052,38
394,06	3051,40
394,53	3067,28
394,99	3049,68
395,45	3047,88
395,91	3048,18
396,37	3054,38
396,84	3047,18
397,30	3045,48
397,76	3051,42
398,22	3049,15
398,68	3052,38
399,14	3048,10
399,61	3051,95
400,07	3048,05
400,53	3050,80
400,99	3052,52
401,45	3048,10
401,91	3050,45
402,38	3048,28
402,84	3049,00
403,30	3057,50
403,76	3048,28
404,22	3052,78
404,68	3048,05
405,14	3049,80
405,61	3065,38
406,07	3046,08
406,53	3051,28
406,99	3049,68
407,45	3045,68
407,91	3046,88
408,37	3046,12
408,83	3045,72
409,29	3051,88
409,76	3044,08
410,22	3049,90
410,68	3047,15
411,14	3052,18
411,60	3050,15
412,06	3049,30
412,52	3044,68
412,98	3054,72
413,44	3051,35
413,90	3050,88
414,36	3055,65
414,83	3053,18
415,29	3044,98
415,75	3052,35
416,21	3048,75
416,67	3053,60
417,13	3049,70
417,59	3048,35
418,05	3049,50
418,51	3044,72
418,97	3053,72
419,43	3046,25
419,89	3053,85
420,35	3044,02
420,81	3052,70
421,27	3043,48
421,73	3043,62
422,19	3051,90
422,65	3048,05
423,11	3052,50
423,57	3050,45
424,03	3053,35
424,49	3049,05
424,96	3052,52
425,42	3050,70
425,88	3049,55
426,34	3054,55
426,80	3049,05
427,26	3047,72
427,72	3048,60
428,18	3048,70
428,64	3052,10
429,10	3048,28
429,56	3050,75
430,02	3046,08
430,47	3051,05
430,93	3047,95
431,39	3049,48
431,85	3048,50
432,31	3049,22
432,77	3049,95
433,23	3053,02
433,69	3049,22
434,15	3053,98
434,61	3047,15
435,07	3054,72
435,53	3048,35
435,99	3052,95
436,45	3052,50
436,91	3051,60
437,37	3046,68
437,83	3052,02
438,29	3050,48
438,75	3049,38
439,21	3049,52
439,67	3058,22
440,12	3045,12
440,58	3048,22
441,04	3055,00
441,50	3054,88
441,96	3048,80
442,42	3049,65
442,88	3049,65
443,34	3049,78
443,80	3051,78
444,26	3046,92
444,72	3050,85
445,17	3049,58
445,63	3045,25
446,09	3051,82
446,55	3050,55
447,01	3048,05
447,47	3047,15
447,93	3050,32
448,39	3064,80
448,85	3051,78
449,30	3053,08
449,76	3052,92
450,22	3048,40
450,68	3050,05
451,14	3059,50
451,60	3045,25
452,06	3049,98
452,51	3049,78
452,97	3045,90
453,43	3056,38
453,89	3049,40
454,35	3049,30
454,81	3048,30
455,26	3050,25
455,72	3048,58
456,18	3051,70
456,64	3049,90
457,10	3048,78
457,56	3050,82
458,01	3052,18
458,47	3049,85
458,93	3047,55
459,39	3046,82
459,85	3047,95
460,30	3050,78
460,76	3051,40
461,22	3047,08
461,68	3052,38
462,14	3048,30
462,59	3050,38
463,05	3048,20
463,51	3051,75
463,97	3049,20
464,43	3050,02
464,88	3054,18
465,34	3047,12
465,80	3054,92
466,26	3049,75
466,71	3050,12
467,17	3044,42
467,63	3049,05
468,09	3051,58
468,54	3050,60
469,00	3048,05
469,46	3046,12
469,92	3054,02
470,37	3051,50
470,83	3045,58
471,29	3046,40
471,75	3053,52
472,20	3048,05
472,66	3050,45
473,12	3051,00
473,58	3048,02
474,03	3047,82
474,49	3052,35
474,95	3049,75
475,40	3052,35
475,86	3051,10
476,32	3048,25
476,78	3050,65
477,23	3049,00
477,69	3051,12
478,15	3047,90
478,60	3052,55
479,06	3051,90
479,52	3046,92
479,97	3049,70
480,43	3047,72
480,89	3046,20
481,34	3047,38
481,80	3054,95
482,26	3050,65
482,71	3048,60
483,17	3049,70
483,63	3047,52
484,08	3051,10
484,54	3050,88
485,00	3049,88
485,45	3050,82
485,91	3049,28
486,37	3054,08
486,82	3050,10
487,28	3053,08
487,74	3044,70
488,19	3056,72
488,65	3049,30
489,10	3047,75
489,56	3049,32
490,02	3048,45
490,47	3049,05
490,93	3045,42
491,39	3050,15
491,84	3045,45
492,30	3049,65
492,75	3054,42
493,21	3052,10
493,67	3048,45
494,12	3043,05
494,58	3049,40
495,03	3045,28
495,49	3048,88
495,95	3045,18
496,40	3045,42
496,86	3047,48
497,31	3049,72
497,77	3049,78
498,23	3050,55
498,68	3045,42
499,14	3049,32
499,59	3044,22
500,05	3047,48
500,50	3043,00
500,96	3050,52
501,41	3052,72
501,87	3049,70
502,33	3046,15
502,78	3050,20
503,24	3046,38
503,69	3045,72
504,15	3051,62
504,60	3046,02
505,06	3049,52
505,51	3055,28
505,97	3052,60
506,42	3047,05
506,88	3050,85
507,33	3048,22
507,79	3056,72
508,24	3050,08
508,70	3046,98
509,15	3048,75
509,61	3048,92
510,06	3051,60
510,52	3049,55
510,97	3050,25
511,43	3047,72
511,88	3050,60
512,34	3047,00
512,79	3049,05
513,25	3049,58
513,70	3045,82
514,16	3048,78
514,61	3051,78
515,07	3047,52
515,52	3050,35
515,98	3049,88
516,43	3045,60
516,89	3046,25
517,34	3043,68
517,80	3047,20
518,25	3046,50
518,70	3045,98
519,16	3052,88
519,61	3052,02
520,07	3046,95
520,52	3044,45
520,98	3045,10
521,43	3049,20
521,89	3044,92
522,34	3050,28
522,79	3054,12
523,25	3045,02
523,70	3048,18
524,16	3052,02
524,61	3051,98
525,06	3058,35
525,52	3051,70
525,97	3048,00
526,43	3062,40
526,88	3048,58
527,33	3046,45
527,79	3045,78
528,24	3047,05
528,70	3048,88
529,15	3051,42
529,60	3050,72
530,06	3049,15
530,51	3044,65
530,97	3054,32
531,42	3051,18
531,87	3046,58
532,33	3053,15
532,78	3050,02
533,23	3049,10
533,69	3053,55
534,14	3050,30
534,59	3049,15
535,05	3046,88
535,50	3045,65
535,96	3051,95
536,41	3051,95
536,86	3046,90
537,32	3045,65
537,77	3050,48
538,22	3048,55
538,68	3046,00
539,13	3052,00
539,58	3047,90
540,03	3048,45
540,49	3048,28
540,94	3049,00
541,39	3047,40
541,85	3045,40
542,30	3049,02
542,75	3048,62
543,21	3049,05
543,66	3046,32
544,11	3051,08
544,57	3044,22
545,02	3049,92
545,47	3047,95
545,92	3048,90
546,38	3055,55
546,83	3050,72
547,28	3067,22
547,73	3045,08
548,19	3054,12
548,64	3047,80
549,09	3044,85
549,55	3048,38
550,00	3050,20
550,45	3046,68
550,90	3058,60
551,36	3044,00
551,81	3055,00
552,26	3052,42
552,71	3048,45
553,17	3047,58
553,62	3050,85
554,07	3046,80
554,52	3050,20
554,97	3049,68
555,43	3049,40
555,88	3048,20
556,33	3047,12
556,78	3045,92
557,24	3056,00
557,69	3046,92
558,14	3045,85
558,59	3050,68
559,04	3049,08
559,50	3055,02
559,95	3048,30
560,40	3045,28
560,85	3051,82
561,30	3046,95
561,76	3044,65
562,21	3046,88
562,66	3049,32
563,11	3055,40
563,56	3049,75
564,01	3052,38
564,47	3045,55
564,92	3049,80
565,37	3055,45
565,82	3046,10
566,27	3046,18
566,72	3046,68
567,18	3046,18
567,63	3047,32
568,08	3049,25
568,53	3049,30
568,98	3048,32
569,43	3047,58
569,88	3046,65
570,34	3048,38
570,79	3052,40
571,24	3047,40
571,69	3050,58
572,14	3046,88
572,59	3047,78
573,04	3049,65
573,49	3051,02
573,94	3045,98
574,40	3046,35
574,85	3049,98
575,30	3052,40
575,75	3046,48
576,20	3049,42
576,65	3052,32
577,10	3049,90
577,55	3046,35
578,00	3052,18
578,45	3051,32
578,91	3049,75
579,36	3049,18
579,81	3051,42
580,26	3045,10
580,71	3047,92
581,16	3050,05
581,61	3050,50
582,06	3050,55
582,51	3045,88
582,96	3048,78
583,41	3043,30
583,86	3053,68
584,31	3047,82
584,76	3049,02
585,21	3045,28
585,66	3054,42
586,11	3050,35
586,56	3048,12
587,01	3048,08
587,46	3048,40
587,92	3048,78
588,37	3047,42
588,82	3048,50
589,27	3049,62
589,72	3045,48
590,17	3047,75
590,62	3049,82
591,07	3047,15
591,52	3049,92
591,97	3047,30
592,42	3056,60
592,87	3046,58
593,32	3045,70
593,77	3047,02
594,22	3048,60
594,67	3052,85
595,12	3045,25
595,56	3049,72
596,01	3048,22
596,46	3047,50
596,91	3050,62
597,36	3052,60
597,81	3046,92
598,26	3045,60
598,71	3052,00
599,16	3046,05
599,61	3048,28
600,06	3047,82
600,51	3052,78
600,96	3049,45
601,41	3048,35
601,86	3052,88
602,31	3047,00
602,76	3047,60
603,21	3052,12
603,66	3052,92
604,11	3053,05
604,55	3049,38
605,00	3043,70
605,45	3049,05
605,90	3054,88
606,35	3045,50
606,80	3048,90
607,25	3052,38
607,70	3050,60
608,15	3052,98
608,60	3043,85
609,04	3058,82
609,49	3045,98
609,94	3048,40
610,39	3045,72
610,84	3043,48
611,29	3051,28
611,74	3047,45
612,19	3050,75
612,64	3049,65
613,08	3042,60
613,53	3049,52
613,98	3047,32
614,43	3047,98
614,88	3048,88
615,33	3049,20
615,78	3056,48
616,22	3051,90
616,67	3047,70
617,12	3047,52
617,57	3050,18
618,02	3043,75
618,47	3055,15
618,91	3049,45
619,36	3049,25
619,81	3058,78
620,26	3044,38
620,71	3044,85
621,16	3045,60
621,60	3043,95
622,05	3048,48
622,50	3047,30
622,95	3045,42
623,40	3049,45
623,84	3049,45
624,29	3050,70
624,74	3045,40
625,19	3046,88
625,64	3048,38
626,08	3051,78
626,53	3047,78
626,98	3050,32
627,43	3052,95
627,87	3048,48
628,32	3053,45
628,77	3054,30
629,22	3052,25
629,66	3047,45
630,11	3046,05
630,56	3053,25
631,01	3045,48
631,46	3047,18
631,90	3049,32
632,35	3045,95
632,80	3049,00
633,25	3050,32
633,69	3048,42
634,14	3050,65
634,59	3050,78
635,03	3045,12
635,48	3047,78
635,93	3052,30
636,38	3045,52
636,82	3049,62
637,27	3047,38
637,72	3051,40
638,16	3050,50
638,61	3054,62
639,06	3047,60
639,51	3047,72
639,95	3045,62
640,40	3045,92
640,85	3046,75
641,29	3046,60
641,74	3048,12
642,19	3044,98
642,63	3047,55
643,08	3047,00
643,53	3045,18
643,97	3049,88
644,42	3051,40
644,87	3044,75
645,31	3046,52
645,76	3046,32
646,21	3044,68
646,65	3049,48
647,10	3051,12
647,55	3044,88
647,99	3047,92
648,44	3044,98
648,89	3043,35
649,33	3046,68
649,78	3050,65
650,23	3046,38
650,67	3044,02
651,12	3046,88
651,56	3043,95
652,01	3049,50
652,46	3048,82
652,90	3048,00
653,35	3050,80
653,80	3049,22
654,24	3050,12
654,69	3045,00
655,13	3052,78
655,58	3048,15
656,03	3063,52
656,47	3045,65
656,92	3044,82
657,36	3045,08
657,81	3047,80
658,26	3045,52
658,70	3047,02
659,15	3046,72
659,59	3046,70
660,04	3050,12
660,48	3050,32
660,93	3047,22
661,38	3045,40
661,82	3050,32
662,27	3045,38
662,71	3047,10
663,16	3050,18
663,60	3051,72
664,05	3046,75
664,49	3049,50
664,94	3043,52
665,38	3063,42
665,83	3044,62
666,28	3050,58
666,72	3048,65
667,17	3046,42
667,61	3047,48
668,06	3044,48
668,50	3042,18
668,95	3050,82
669,39	3046,62
669,84	3046,65
670,28	3047,48
670,73	3043,65
671,17	3049,42
671,62	3043,40
672,06	3050,45
672,51	3048,55
672,95	3058,55
673,40	3053,10
673,84	3045,02
674,29	3047,15
674,73	3045,15
675,18	3055,88
675,62	3041,98
676,07	3044,78
676,51	3052,68
676,95	3047,52
677,40	3052,82
677,84	3056,38
678,29	3048,68
678,73	3048,28
679,18	3051,15
679,62	3060,90
680,07	3049,68
680,51	3048,28
680,96	3041,98
681,40	3045,65
681,84	3049,22
682,29	3047,45
682,73	3047,65
683,18	3045,88
683,62	3058,50
684,07	3043,92
684,51	3045,82
684,95	3048,18
685,40	3045,95
685,84	3047,38
686,29	3047,50
686,73	3042,25
687,17	3040,70
687,62	3046,88
688,06	3048,25
688,51	3051,58
688,95	3050,45
689,39	3048,52
689,84	3053,32
690,28	3049,85
690,73	3047,72
691,17	3049,55
691,61	3047,55
692,06	3045,95
692,50	3050,95
692,94	3046,42
693,39	3048,82
693,83	3046,60
694,27	3057,05
694,72	3051,58
695,16	3045,35
695,60	3048,18
696,05	3046,75
696,49	3044,48
696,94	3047,08
697,38	3044,48
697,82	3047,72
698,27	3047,22
698,71	3049,62
699,15	3049,45
699,59	3047,75
700,04	3046,85
700,48	3064,12
700,92	3048,70
701,37	3048,88
701,81	3053,65
702,25	3048,58
702,70	3048,15
703,14	3048,50
703,58	3045,52
704,03	3050,22
704,47	3050,92
704,91	3046,35
705,35	3046,85
705,80	3050,15
706,24	3049,78
706,68	3061,92
707,13	3043,50
707,57	3053,15
708,01	3045,85
708,45	3044,85
708,90	3049,60
709,34	3046,85
709,78	3045,92
710,22	3053,52
710,67	3053,12
711,11	3050,78
711,55	3043,90
711,99	3048,90
712,44	3048,95
712,88	3048,22
713,32	3049,65
713,76	3049,02
714,21	3046,38
714,65	3047,32
715,09	3048,08
715,53	3047,35
715,97	3046,12
716,42	3050,25
716,86	3049,68
717,30	3048,05
717,74	3044,65
718,18	3053,42
718,63	3047,10
719,07	3048,62
719,51	3053,80
719,95	3050,30
720,39	3045,88
720,84	3049,42
721,28	3047,00
721,72	3046,72
722,16	3043,18
722,60	3044,20
723,04	3049,60
723,49	3055,08
723,93	3043,38
724,37	3045,70
724,81	3047,42
725,25	3048,92
725,69	3045,02
726,14	3048,05
726,58	3045,98
727,02	3048,92
727,46	3045,38
727,90	3044,22
728,34	3043,28
728,78	3048,62
729,23	3043,02
729,67	3050,72
730,11	3044,65
730,55	3046,75
730,99	3046,25
731,43	3047,95
731,87	3053,72
732,31	3044,08
732,76	3052,90
733,20	3052,88
733,64	3047,28
734,08	3052,42
734,52	3044,92
734,96	3052,08
735,40	3045,38
735,84	3047,88
736,28	3050,12
736,72	3051,12
737,16	3048,38
737,61	3045,82
738,05	3051,12
738,49	3049,62
738,93	3048,18
739,37	3049,38
739,81	3047,48
740,25	3046,95
740,69	3057,55
741,13	3044,88
741,57	3048,48
742,01	3051,12
742,45	3050,98
742,89	3046,88
743,33	3046,62
743,77	3047,52
744,21	3044,45
744,65	3053,72
745,09	3048,12
745,53	3045,48
745,98	3049,50
746,42	3048,40
746,86	3048,42
747,30	3047,72
747,74	3045,30
748,18	3044,60
748,62	3047,62
749,06	3052,38
749,50	3050,70
749,94	3048,10
750,38	3050,45
750,82	3054,25
751,26	3043,82
751,70	3045,75
752,14	3043,40
752,58	3050,45
753,02	3046,88
753,45	3046,25
753,89	3048,68
754,33	3056,80
754,77	3048,90
755,21	3047,28
755,65	3044,28
756,09	3045,25
756,53	3044,80
756,97	3046,50
757,41	3053,00
757,85	3046,08
758,29	3044,92
758,73	3043,02
759,17	3044,75
759,61	3044,38
760,05	3047,45
760,49	3046,92
760,93	3052,98
761,37	3046,15
761,80	3051,98
762,24	3047,30
762,68	3045,85
763,12	3046,62
763,56	3048,88
764,00	3044,68
764,44	3046,88
764,88	3048,50
765,32	3047,60
765,76	3050,95
766,20	3050,70
766,63	3047,75
767,07	3044,80
767,51	3046,48
767,95	3050,92
768,39	3048,32
768,83	3045,48
769,27	3046,70
769,71	3050,10
770,14	3044,25
770,58	3044,90
771,02	3045,58
771,46	3046,58
771,90	3046,85
772,34	3049,00
772,78	3047,28
773,21	3048,48
773,65	3053,85
774,09	3045,12
774,53	3048,85
774,97	3045,40
775,41	3043,98
775,84	3049,40
776,28	3046,88
776,72	3048,60
777,16	3045,90
777,60	3047,78
778,04	3046,90
778,47	3041,85
778,91	3044,72
779,35	3044,82
779,79	3048,08
780,23	3048,50
780,66	3043,38
781,10	3046,02
781,54	3047,52
781,98	3049,75
782,42	3048,70
782,85	3045,82
783,29	3051,32
783,73	3057,88
784,17	3052,75
784,61	3049,30
785,04	3050,78
785,48	3050,02
785,92	3045,60
786,36	3049,12
786,79	3047,18
787,23	3048,05
787,67	3049,72
788,11	3049,70
788,54	3045,88
788,98	3046,50
789,42	3047,08
789,86	3044,52
790,29	3049,42
790,73	3051,92
791,17	3051,00
791,60	3044,38
792,04	3045,68
792,48	3048,42
792,92	3045,18
793,35	3044,82
793,79	3045,75
794,23	3049,75
794,67	3042,45
795,10	3045,70
795,54	3051,22
795,98	3044,60
796,41	3047,18
796,85	3045,35
797,29	3064,02
797,72	3051,78
798,16	3046,42
798,60	3048,85
799,03	3049,95
799,47	3043,02
799,91	3050,00
800,34	3047,72
800,78	3048,75
801,22	3045,55
801,65	3045,30
802,09	3047,92
802,53	3051,68
802,96	3047,48
803,40	3045,85
803,84	3053,12
804,27	3049,68
804,71	3043,70
805,15	3047,68
805,58	3048,50
806,02	3043,48
806,46	3051,18
806,89	3055,10
807,33	3048,98
807,76	3049,72
808,20	3046,70
808,64	3044,92
809,07	3052,75
809,51	3054,48
809,95	3055,78
810,38	3052,72
810,82	3056,08
811,25	3045,28
811,69	3046,28
812,13	3045,05
812,56	3047,72
813,00	3047,85
813,43	3045,95
813,87	3043,70
814,30	3050,05
814,74	3051,48
815,18	3060,90
815,61	3047,30
816,05	3047,05
816,48	3049,95
816,92	3055,20
817,35	3050,75
817,79	3049,52
818,23	3049,40
818,66	3050,82
819,10	3048,45
819,53	3047,22
819,97	3045,70
820,40	3045,45
820,84	3050,92
821,27	3047,50
821,71	3052,72
822,14	3046,42
822,58	3048,78
823,01	3050,65
823,45	3046,90
823,88	3049,25
824,32	3046,98
824,75	3046,52
825,19	3047,18
825,63	3053,48
826,06	3045,25
826,50	3047,00
826,93	3047,95
827,37	3044,25
827,80	3049,38
828,23	3046,62
828,67	3049,35
829,10	3050,02
829,54	3046,18
829,97	3045,80
830,41	3040,80
830,84	3047,55
831,28	3049,22
831,71	3050,18
832,15	3046,25
832,58	3050,62
833,02	3048,30
833,45	3046,68
833,89	3055,40
834,32	3044,48
834,75	3056,42
835,19	3050,88
835,62	3051,08
836,06	3043,35
836,49	3046,70
836,93	3048,05
837,36	3050,78
837,79	3050,45
838,23	3047,30
838,66	3046,50
839,10	3049,98
839,53	3046,60
839,97	3047,52
840,40	3046,10
840,83	3050,38
841,27	3045,62
841,70	3045,22
842,14	3049,28
842,57	3048,70
843,00	3053,98
843,44	3056,68
843,87	3049,88
844,31	3049,88
844,74	3042,05
845,17	3045,52
845,61	3044,30
846,04	3046,45
846,47	3048,05
846,91	3048,28
847,34	3051,45
847,77	3047,72
848,21	3047,38
848,64	3047,82
849,08	3048,75
849,51	3051,38
849,94	3047,12
850,38	3047,15
850,81	3049,02
851,24	3045,75
851,68	3046,32
852,11	3046,42
852,54	3050,82
852,98	3052,15
853,41	3050,08
853,84	3047,02
854,28	3053,22
854,71	3046,42
855,14	3047,48
855,57	3052,68
856,01	3047,20
856,44	3045,55
856,87	3049,32
857,31	3042,95
857,74	3049,52
858,17	3045,05
858,61	3046,90
859,04	3051,75
859,47	3051,38
859,90	3047,45
860,34	3048,22
860,77	3048,28
861,20	3043,92
861,63	3051,22
862,07	3041,78
862,50	3043,30
862,93	3048,08
863,37	3048,00
863,80	3048,38
864,23	3049,18
864,66	3045,25
865,10	3046,48
865,53	3051,25
865,96	3044,30
866,39	3046,68
866,82	3051,32
867,26	3046,32
867,69	3046,68
868,12	3046,40
868,55	3043,52
868,99	3047,35
869,42	3042,80
869,85	3049,70
870,28	3043,18
870,71	3048,12
871,15	3045,18
871,58	3047,68
872,01	3048,82
872,44	3049,60
872,87	3051,62
873,31	3057,08
873,74	3045,45
874,17	3048,45
874,60	3048,22
875,03	3045,15
875,47	3047,70
875,90	3049,62
876,33	3047,60
876,76	3050,45
877,19	3049,50
877,62	3045,90
878,06	3044,62
878,49	3052,95
878,92	3041,52
879,35	3049,55
879,78	3047,58
880,21	3046,55
880,64	3045,68
881,08	3046,08
881,51	3048,98
881,94	3046,50
882,37	3054,30
882,80	3044,40
883,23	3044,80
883,66	3045,85
884,09	3048,45
884,53	3050,32
884,96	3047,08
885,39	3046,40
885,82	3046,35
886,25	3045,58
886,68	3045,72
887,11	3049,30
887,54	3048,32
887,97	3051,02
888,40	3051,22
888,84	3045,45
889,27	3046,68
889,70	3054,12
890,13	3046,30
890,56	3045,68
890,99	3047,90
891,42	3043,95
891,85	3058,92
892,28	3044,82
892,71	3049,65
893,14	3045,40
893,57	3050,42
894,00	3050,00
894,43	3042,72
894,86	3044,78
895,29	3046,65
895,73	3045,62
896,16	3046,25
896,59	3048,20
897,02	3046,30
897,45	3049,82
897,88	3047,30
898,31	3043,12
898,74	3047,42
899,17	3048,12
899,60	3044,58
900,03	3046,40
900,46	3043,88
900,89	3047,62
901,32	3051,72
901,75	3046,40
902,18	3043,60
902,61	3045,95
903,04	3049,20
903,47	3049,52
903,90	3045,58
904,33	3053,22
904,76	3055,32
905,19	3045,50
905,62	3045,75
906,05	3054,58
906,48	3044,70
906,91	3047,40
907,34	3044,98
907,76	3045,62
908,19	3043,85
908,62	3052,80
909,05	3047,80
909,48	3051,08
909,91	3051,20
910,34	3045,80
910,77	3049,95
911,20	3053,58
911,63	3046,82
912,06	3044,70
912,49	3049,05
912,92	3049,30
913,35	3047,98
913,78	3045,08
914,21	3047,15
914,63	3048,40
915,06	3046,92
915,49	3048,02
915,92	3046,52
916,35	3046,32
916,78	3044,48
917,21	3044,05
917,64	3045,42
918,07	3045,28
918,50	3051,48
918,92	3045,05
919,35	3053,32
919,78	3046,35
920,21	3049,40
920,64	3045,58
921,07	3047,08
921,50	3046,20
921,93	3049,15
922,35	3049,58
922,78	3046,55
923,21	3052,48
923,64	3049,88
924,07	3043,88
924,50	3044,48
924,92	3042,90
925,35	3049,28
925,78	3052,30
926,21	3053,22
926,64	3042,72
927,07	3050,98
927,49	3044,90
927,92	3048,02
928,35	3054,70
928,78	3047,22
929,21	3047,80
929,64	3043,95
930,06	3055,32
930,49	3047,45
930,92	3042,62
931,35	3050,58
931,78	3046,30
932,20	3048,55
932,63	3049,55
933,06	3047,48
933,49	3048,65
933,92	3041,20
934,34	3054,45
934,77	3051,58
935,20	3057,35
935,63	3048,40
936,05	3051,35
936,48	3051,40
936,91	3047,02
937,34	3050,48
937,76	3043,22
938,19	3045,42
938,62	3044,42
939,05	3047,98
939,47	3043,38
939,90	3049,52
940,33	3044,82
940,76	3048,15
941,18	3051,05
941,61	3043,52
942,04	3048,22
942,47	3051,40
942,89	3053,38
943,32	3046,32
943,75	3051,22
944,17	3044,58
944,60	3046,78
945,03	3052,45
945,46	3045,30
945,88	3042,78
946,31	3052,08
946,74	3046,58
947,16	3050,25
947,59	3046,42
948,02	3047,38
948,44	3049,52
948,87	3051,25
949,30	3045,78
949,72	3048,20
950,15	3049,72
950,58	3041,68
951,00	3045,20
951,43	3044,15
951,86	3055,68
952,28	3052,90
952,71	3045,98
953,14	3047,50
953,56	3050,08
953,99	3042,12
954,42	3050,72
954,84	3046,78
955,27	3054,18
955,70	3043,95
956,12	3044,75
956,55	3046,35
956,98	3044,82
957,40	3046,18
957,83	3048,62
958,25	3045,58
958,68	3050,35
959,11	3059,78
959,53	3044,00
959,96	3048,85
960,38	3047,82
960,81	3047,18
961,24	3045,88
961,66	3047,05
962,09	3040,35
962,51	3047,45
962,94	3049,18
963,37	3050,18
963,79	3051,30
964,22	3050,28
964,64	3044,88
965,07	3047,42
965,49	3048,22
965,92	3048,40
966,35	3045,22
966,77	3046,48
967,20	3049,25
967,62	3045,20
968,05	3047,25
968,47	3048,30
968,90	3044,98
969,32	3044,80
969,75	3050,78
970,17	3063,85
970,60	3050,50
971,03	3046,68
971,45	3049,52
971,88	3044,50
972,30	3046,42
972,73	3048,80
973,15	3046,92
973,58	3048,38
974,00	3042,80
974,43	3044,30
974,85	3046,92
975,28	3048,35
975,70	3046,48
976,13	3050,48
976,55	3047,50
976,98	3045,72
977,40	3045,60
977,83	3045,92
978,25	3047,80
978,68	3044,78
979,10	3048,95
979,53	3048,85
979,95	3046,10
980,37	3046,88
980,80	3045,25
981,22	3050,80
981,65	3049,78
982,07	3047,25
982,50	3050,38
982,92	3049,48
983,35	3045,60
983,77	3047,10
984,20	3044,42
984,62	3046,18
985,04	3047,05
985,47	3049,32
985,89	3048,72
986,32	3044,48
986,74	3041,98
987,17	3046,05
987,59	3048,55
988,01	3045,72
988,44	3044,30
988,86	3049,05
989,29	3047,68
989,71	3047,50
990,13	3047,60
990,56	3048,25
990,98	3046,80
991,41	3045,52
991,83	3048,90
992,25	3046,55
992,68	3047,92
993,10	3052,92
993,53	3047,38
993,95	3046,22
994,37	3046,02
994,80	3046,92
995,22	3046,58
995,64	3049,82
996,07	3049,20
996,49	3048,08
996,91	3046,55
997,34	3044,10
997,76	3041,75
998,18	3041,65
998,61	3053,65
999,03	3050,78
999,45	3045,52
999,88	3047,62
1000,30	3045,65
1000,72	3051,42
1001,15	3045,98
1001,57	3049,30
1001,99	3052,85
1002,42	3044,52
1002,84	3047,45
1003,26	3049,80
1003,69	3046,18
1004,11	3048,00
1004,53	3045,85
1004,96	3046,45
1005,38	3043,70
1005,80	3049,12
1006,22	3048,95
1006,65	3053,58
1007,07	3046,52
1007,49	3045,18
1007,92	3049,62
1008,34	3046,50
1008,76	3046,02
1009,18	3045,50
1009,61	3046,32
1010,03	3046,50
1010,45	3059,92
1010,87	3052,18
1011,30	3052,25
1011,72	3049,15
1012,14	3047,85
1012,56	3051,82
1012,99	3045,10
1013,41	3050,05
1013,83	3050,65
1014,25	3050,28
1014,68	3048,80
1015,10	3045,68
1015,52	3053,52
1015,94	3043,98
1016,37	3050,75
1016,79	3047,35
1017,21	3048,15
1017,63	3045,00
1018,05	3047,82
1018,48	3046,85
1018,90	3046,48
1019,32	3047,00
1019,74	3043,95
1020,16	3060,98
1020,59	3053,40
1021,01	3048,72
1021,43	3046,98
1021,85	3048,10
1022,27	3047,80
1022,69	3049,10
1023,12	3048,40
1023,54	3048,22
1023,96	3060,72
1024,38	3050,80
1024,80	3051,60
1025,22	3050,22
1025,65	3048,20
1026,07	3047,98
1026,49	3052,12
1026,91	3045,70
1027,33	3046,52
1027,75	3055,55
1028,17	3051,55
1028,60	3047,92
1029,02	3049,48
1029,44	3049,50
1029,86	3046,78
1030,28	3055,30
1030,70	3049,82
1031,12	3046,02
1031,54	3051,85
1031,97	3051,88
1032,39	3045,55
1032,81	3048,82
1033,23	3051,38
1033,65	3046,95
1034,07	3048,78
1034,49	3044,68
1034,91	3046,15
1035,33	3049,30
1035,75	3050,90
1036,18	3046,78
1036,60	3053,95
1037,02	3044,92
1037,44	3045,60
1037,86	3050,05
1038,28	3045,50
1038,70	3049,82
1039,12	3050,18
1039,54	3049,62
1039,96	3051,90
1040,38	3054,88
1040,80	3046,72
1041,22	3047,90
1041,64	3049,40
1042,06	3046,35
1042,48	3051,18
1042,90	3051,82
1043,32	3048,48
1043,74	3050,15
1044,17	3049,78
1044,59	3050,90
1045,01	3045,98
1045,43	3045,98
1045,85	3047,45
1046,27	3045,30
1046,69	3049,85
1047,11	3048,12
1047,53	3042,85
1047,95	3049,10
1048,37	3051,05
1048,79	3042,98
1049,21	3051,75
1049,63	3051,08
1050,05	3051,35
1050,47	3046,00
1050,89	3045,50
1051,31	3050,65
1051,72	3051,75
1052,14	3053,40
1052,56	3052,40
1052,98	3047,80
1053,40	3051,22
1053,82	3042,58
1054,24	3046,50
1054,66	3042,92
1055,08	3048,62
1055,50	3045,55
1055,92	3049,08
1056,34	3049,42
1056,76	3054,42
1057,18	3050,30
1057,60	3050,98
1058,02	3049,52
1058,44	3062,80
1058,86	3045,10
1059,28	3050,30
1059,69	3049,72
1060,11	3048,65
1060,53	3046,22
1060,95	3046,55
1061,37	3049,65
1061,79	3047,85
1062,21	3047,15
1062,63	3049,20
1063,05	3054,82
1063,47	3048,78
1063,88	3049,40
1064,30	3045,50
1064,72	3052,85
1065,14	3050,00
1065,56	3047,68
1065,98	3044,70
1066,40	3044,08
1066,82	3050,98
1067,23	3049,80
1067,65	3047,52
1068,07	3051,25
1068,49	3047,42
1068,91	3055,05
1069,33	3050,02
1069,75	3045,70
1070,16	3044,35
1070,58	3050,45
1071,00	3052,10
1071,42	3050,40
1071,84	3047,68
1072,26	3052,62
1072,67	3046,30
1073,09	3045,58
1073,51	3044,88
1073,93	3050,12
1074,35	3047,55
1074,77	3044,78
1075,18	3044,98
1075,60	3045,10
1076,02	3049,60
1076,44	3046,20
1076,86	3045,42
1077,27	3047,78
1077,69	3051,10
1078,11	3048,45
1078,53	3052,05
1078,94	3053,32
1079,36	3043,80
1079,78	3049,12
1080,20	3047,68
1080,62	3045,68
1081,03	3050,40
1081,45	3047,42
1081,87	3047,60
1082,29	3051,28
1082,70	3048,00
1083,12	3046,75
1083,54	3046,95
1083,96	3047,75
1084,37	3051,68
1084,79	3047,08
1085,21	3045,50
1085,63	3051,98
1086,04	3046,42
1086,46	3045,18
1086,88	3046,62
1087,30	3043,38
1087,71	3050,48
1088,13	3218,60
1088,55	3046,78
1088,96	3045,80
1089,38	3046,28
1089,80	3047,10
1090,22	3051,68
1090,63	3046,32
1091,05	3044,08
1091,47	3050,32
1091,88	3046,20
1092,30	3045,52
1092,72	3047,92
1093,13	3046,65
1093,55	3047,02
1093,97	3047,70
1094,38	3046,50
1094,80	3047,78
1095,22	3046,90
1095,63	3046,75
1096,05	3047,82
1096,47	3050,32
1096,88	3045,05
1097,30	3047,65
1097,72	3045,08
1098,13	3050,30
1098,55	3050,02
1098,97	3050,88
1099,38	3046,60
1099,80	3047,12
1100,21	3045,65
1100,63	3045,60
1101,05	3045,30
1101,46	3047,05
1101,88	3045,05
1102,30	3046,32
1102,71	3046,25
1103,13	3047,75
1103,54	3046,95
1103,96	3046,00
1104,38	3052,78
1104,79	3040,08
1105,21	3046,92
1105,62	3046,80
1106,04	3044,32
1106,46	3045,28
1106,87	3043,18
1107,29	3043,20
1107,70	3050,42
1108,12	3043,60
1108,54	3048,88
1108,95	3047,92
1109,37	3046,95
1109,78	3041,25
1110,20	3044,38
1110,61	3042,90
1111,03	3042,90
1111,44	3042,90
1111,86	3042,90
1112,28	3042,90
1112,69	3042,90
1113,11	3042,90
1113,52	3042,90
1113,94	3042,90
1114,35	3042,90
1114,77	3042,90
1115,18	3042,90
1115,60	3042,90
1116,01	3042,90
1116,43	3042,90
1116,84	3042,90
1117,26	3042,90
1117,67	3042,90
1118,09	3042,90
1118,50	3042,90
1118,92	3042,90
>>>>>End Processed Spectral Data<<<<<
