SpectraSuite Data File
++++++++++++++++++++++++++++++++++++
Date: Tue Jul 12 15:34:04 EEST 2011
User: OO Maya
Dark Spectrum Present: No
Reference Spectrum Present: No
Number of Sampled Component Spectra: 1
Spectrometers: MAYP11278
Integration Time (usec): 15000 (MAYP11278)
Spectra Averaged: 40 (MAYP11278)
Boxcar Smoothing: 0 (MAYP11278)
Correct for Electrical Dark: No (MAYP11278)
Strobe/Lamp Enabled: No (MAYP11278)
Correct for Detector Non-linearity: No (MAYP11278)
Correct for Stray Light: No (MAYP11278)
Number of Pixels in Processed Spectrum: 2068
>>>>>Begin Processed Spectral Data<<<<<
200,00	3033,15
200,47	2997,85
200,95	2996,20
201,42	2995,52
201,89	3020,12
202,37	3019,72
202,84	3019,10
203,31	3018,68
203,79	3022,72
204,26	3021,50
204,73	3021,72
205,20	3021,68
205,68	3024,12
206,15	3024,38
206,62	3024,95
207,10	3023,32
207,57	3025,00
208,04	3021,40
208,51	3023,05
208,99	3028,22
209,46	3022,42
209,93	3020,90
210,41	3020,20
210,88	3019,82
211,35	3022,92
211,82	3022,58
212,30	3022,05
212,77	3023,55
213,24	3025,40
213,71	3024,90
214,19	3023,45
214,66	3022,62
215,13	3024,40
215,60	3019,75
216,08	3023,52
216,55	3024,82
217,02	3022,32
217,49	3021,02
217,96	3026,10
218,44	3022,12
218,91	3023,05
219,38	3026,20
219,85	3023,30
220,33	3023,18
220,80	3022,22
221,27	3025,35
221,74	3025,12
222,21	3024,18
222,69	3022,38
223,16	3022,88
223,63	3024,05
224,10	3022,15
224,57	3027,05
225,04	3024,48
225,52	3021,65
225,99	3026,62
226,46	3022,68
226,93	3024,98
227,40	3022,80
227,87	3023,92
228,35	3025,05
228,82	3021,90
229,29	3022,98
229,76	3021,85
230,23	3026,95
230,70	3018,95
231,18	3021,92
231,65	3021,42
232,12	3024,28
232,59	3026,42
233,06	3023,10
233,53	3024,02
234,00	3021,98
234,48	3024,25
234,95	3021,65
235,42	3024,88
235,89	3022,28
236,36	3023,60
236,83	3021,02
237,30	3022,62
237,77	3023,35
238,24	3022,55
238,72	3025,25
239,19	3023,45
239,66	3024,68
240,13	3024,50
240,60	3024,92
241,07	3023,05
241,54	3023,25
242,01	3022,18
242,48	3023,82
242,95	3026,25
243,42	3023,00
243,90	3022,58
244,37	3024,08
244,84	3022,38
245,31	3021,92
245,78	3030,72
246,25	3022,78
246,72	3021,32
247,19	3024,18
247,66	3021,25
248,13	3025,02
248,60	3026,25
249,07	3021,62
249,54	3021,45
250,01	3022,18
250,48	3021,38
250,95	3022,70
251,42	3020,52
251,89	3022,98
252,36	3025,45
252,83	3022,38
253,30	3022,78
253,77	3023,52
254,24	3024,62
254,71	3020,52
255,18	3020,80
255,65	3024,75
256,12	3026,88
256,59	3021,72
257,06	3026,82
257,53	3025,62
258,00	3020,98
258,47	3021,70
258,94	3024,40
259,41	3022,45
259,88	3022,08
260,35	3020,65
260,82	3022,52
261,29	3023,42
261,76	3023,52
262,23	3025,78
262,70	3022,35
263,17	3025,85
263,64	3024,12
264,11	3023,52
264,58	3024,20
265,05	3024,12
265,52	3022,30
265,99	3023,58
266,46	3024,58
266,93	3025,95
267,40	3022,08
267,87	3023,18
268,34	3023,82
268,81	3023,65
269,28	3029,72
269,74	3022,85
270,21	3024,58
270,68	3024,00
271,15	3024,50
271,62	3025,12
272,09	3023,02
272,56	3023,42
273,03	3027,22
273,50	3022,80
273,97	3023,12
274,44	3022,82
274,90	3021,38
275,37	3023,30
275,84	3026,10
276,31	3021,92
276,78	3022,75
277,25	3023,50
277,72	3025,62
278,19	3023,08
278,66	3022,35
279,12	3022,88
279,59	3023,65
280,06	3022,00
280,53	3023,28
281,00	3021,48
281,47	3025,78
281,94	3025,85
282,40	3022,75
282,87	3025,95
283,34	3020,88
283,81	3021,70
284,28	3021,38
284,75	3022,42
285,21	3030,98
285,68	3025,65
286,15	3025,15
286,62	3021,58
287,09	3022,02
287,56	3023,50
288,02	3023,58
288,49	3022,28
288,96	3023,72
289,43	3021,50
289,90	3030,95
290,36	3020,98
290,83	3023,38
291,30	3030,72
291,77	3024,18
292,24	3028,52
292,70	3024,65
293,17	3027,32
293,64	3024,92
294,11	3022,88
294,58	3025,28
295,04	3025,62
295,51	3021,02
295,98	3025,28
296,45	3024,00
296,91	3023,85
297,38	3024,05
297,85	3019,60
298,32	3025,02
298,79	3026,58
299,25	3024,22
299,72	3024,62
300,19	3019,70
300,66	3027,60
301,12	3021,88
301,59	3025,18
302,06	3023,62
302,52	3026,25
302,99	3028,70
303,46	3020,82
303,93	3025,32
304,39	3021,85
304,86	3025,48
305,33	3024,42
305,80	3021,95
306,26	3023,02
306,73	3023,80
307,20	3026,18
307,66	3025,55
308,13	3023,98
308,60	3023,95
309,07	3024,30
309,53	3021,90
310,00	3027,32
310,47	3023,62
310,93	3024,18
311,40	3024,10
311,87	3023,25
312,33	3027,02
312,80	3025,95
313,27	3023,40
313,73	3026,40
314,20	3024,32
314,67	3021,78
315,13	3022,00
315,60	3021,82
316,07	3023,85
316,53	3023,90
317,00	3024,18
317,47	3022,92
317,93	3022,08
318,40	3022,50
318,87	3024,32
319,33	3021,52
319,80	3025,75
320,26	3026,28
320,73	3024,85
321,20	3023,28
321,66	3022,10
322,13	3022,02
322,60	3025,02
323,06	3024,25
323,53	3025,90
323,99	3021,28
324,46	3024,50
324,93	3023,58
325,39	3022,85
325,86	3020,65
326,32	3024,98
326,79	3024,15
327,26	3023,80
327,72	3024,35
328,19	3022,82
328,65	3029,95
329,12	3022,85
329,59	3024,45
330,05	3021,52
330,52	3025,52
330,98	3026,50
331,45	3025,72
331,91	3025,20
332,38	3021,45
332,85	3021,60
333,31	3028,05
333,78	3024,20
334,24	3024,78
334,71	3020,38
335,17	3023,58
335,64	3023,80
336,10	3021,20
336,57	3021,90
337,03	3022,52
337,50	3024,40
337,96	3025,58
338,43	3023,68
338,90	3024,50
339,36	3022,45
339,83	3022,05
340,29	3023,60
340,76	3023,50
341,22	3025,08
341,69	3023,10
342,15	3027,12
342,62	3021,75
343,08	3027,20
343,55	3024,38
344,01	3025,30
344,48	3025,52
344,94	3024,22
345,41	3022,55
345,87	3030,00
346,34	3021,25
346,80	3023,92
347,27	3023,28
347,73	3023,18
348,19	3022,05
348,66	3022,60
349,12	3026,82
349,59	3024,75
350,05	3022,28
350,52	3025,00
350,98	3021,08
351,45	3024,22
351,91	3026,82
352,38	3022,58
352,84	3024,88
353,30	3024,05
353,77	3023,35
354,23	3024,62
354,70	3021,62
355,16	3024,10
355,63	3025,85
356,09	3024,55
356,55	3024,40
357,02	3022,12
357,48	3027,12
357,95	3023,45
358,41	3025,65
358,87	3023,78
359,34	3021,48
359,80	3023,52
360,27	3026,28
360,73	3022,05
361,19	3023,70
361,66	3023,60
362,12	3027,45
362,59	3025,52
363,05	3024,62
363,51	3026,72
363,98	3024,48
364,44	3025,15
364,91	3025,78
365,37	3024,08
365,83	3028,28
366,30	3022,90
366,76	3027,28
367,22	3022,02
367,69	3029,00
368,15	3025,95
368,61	3021,88
369,08	3022,70
369,54	3021,35
370,00	3024,40
370,47	3025,15
370,93	3026,20
371,39	3023,48
371,86	3024,15
372,32	3021,50
372,78	3023,25
373,25	3023,40
373,71	3026,68
374,17	3024,48
374,64	3022,08
375,10	3025,70
375,56	3023,10
376,03	3021,05
376,49	3024,52
376,95	3022,35
377,42	3024,55
377,88	3022,12
378,34	3021,55
378,80	3024,98
379,27	3021,35
379,73	3025,60
380,19	3022,32
380,66	3022,85
381,12	3022,60
381,58	3025,15
382,04	3022,18
382,51	3021,40
382,97	3023,65
383,43	3023,25
383,89	3020,58
384,36	3022,50
384,82	3023,50
385,28	3022,12
385,74	3025,55
386,21	3023,90
386,67	3020,55
387,13	3020,92
387,59	3023,42
388,06	3023,68
388,52	3023,88
388,98	3023,55
389,44	3022,72
389,91	3025,75
390,37	3024,28
390,83	3022,78
391,29	3026,78
391,75	3026,55
392,22	3022,28
392,68	3023,50
393,14	3022,62
393,60	3025,30
394,06	3024,20
394,53	3032,62
394,99	3024,50
395,45	3022,85
395,91	3023,75
396,37	3026,05
396,84	3021,40
397,30	3020,75
397,76	3025,00
398,22	3023,38
398,68	3024,92
399,14	3022,68
399,61	3025,58
400,07	3024,88
400,53	3025,10
400,99	3023,98
401,45	3024,72
401,91	3023,88
402,38	3023,45
402,84	3022,75
403,30	3027,75
403,76	3022,88
404,22	3024,45
404,68	3024,68
405,14	3025,02
405,61	3031,42
406,07	3023,00
406,53	3023,85
406,99	3025,92
407,45	3021,48
407,91	3022,38
408,37	3021,18
408,83	3021,78
409,29	3025,48
409,76	3023,40
410,22	3023,18
410,68	3023,75
411,14	3023,18
411,60	3025,45
412,06	3024,12
412,52	3021,60
412,98	3026,05
413,44	3023,25
413,90	3027,25
414,36	3026,70
414,83	3027,65
415,29	3022,45
415,75	3025,15
416,21	3024,70
416,67	3028,02
417,13	3023,12
417,59	3024,75
418,05	3023,88
418,51	3024,48
418,97	3027,15
419,43	3023,02
419,89	3026,02
420,35	3020,75
420,81	3025,92
421,27	3022,68
421,73	3022,02
422,19	3024,28
422,65	3023,45
423,11	3025,72
423,57	3026,60
424,03	3025,75
424,49	3025,05
424,96	3026,50
425,42	3025,65
425,88	3025,85
426,34	3028,18
426,80	3025,22
427,26	3023,32
427,72	3026,40
428,18	3024,35
428,64	3025,30
429,10	3022,92
429,56	3025,88
430,02	3023,50
430,47	3026,12
430,93	3023,55
431,39	3025,70
431,85	3024,38
432,31	3025,68
432,77	3026,82
433,23	3025,05
433,69	3027,05
434,15	3026,92
434,61	3025,88
435,07	3028,50
435,53	3024,15
435,99	3027,05
436,45	3027,02
436,91	3027,10
437,37	3024,05
437,83	3027,00
438,29	3027,22
438,75	3025,92
439,21	3025,80
439,67	3030,92
440,12	3022,40
440,58	3024,55
441,04	3028,75
441,50	3027,28
441,96	3024,80
442,42	3023,20
442,88	3026,85
443,34	3024,45
443,80	3026,68
444,26	3022,42
444,72	3026,70
445,17	3026,35
445,63	3023,12
446,09	3027,22
446,55	3025,78
447,01	3028,00
447,47	3025,20
447,93	3025,28
448,39	3032,68
448,85	3026,72
449,30	3027,42
449,76	3028,15
450,22	3024,40
450,68	3025,62
451,14	3030,25
451,60	3023,95
452,06	3024,72
452,51	3025,85
452,97	3023,65
453,43	3027,68
453,89	3024,92
454,35	3025,75
454,81	3025,62
455,26	3025,82
455,72	3025,62
456,18	3025,80
456,64	3024,42
457,10	3025,38
457,56	3026,88
458,01	3027,82
458,47	3025,50
458,93	3024,52
459,39	3024,68
459,85	3027,45
460,30	3024,85
460,76	3027,78
461,22	3024,02
461,68	3028,48
462,14	3025,52
462,59	3026,30
463,05	3024,65
463,51	3027,28
463,97	3025,70
464,43	3026,20
464,88	3028,05
465,34	3024,50
465,80	3028,62
466,26	3025,28
466,71	3024,88
467,17	3024,02
467,63	3025,85
468,09	3027,35
468,54	3025,52
469,00	3025,92
469,46	3023,98
469,92	3028,02
470,37	3026,62
470,83	3023,90
471,29	3024,25
471,75	3027,55
472,20	3024,20
472,66	3027,30
473,12	3024,32
473,58	3025,02
474,03	3026,02
474,49	3026,15
474,95	3026,65
475,40	3026,00
475,86	3028,18
476,32	3025,15
476,78	3026,25
477,23	3024,68
477,69	3026,60
478,15	3023,78
478,60	3027,22
479,06	3024,60
479,52	3025,32
479,97	3024,28
480,43	3023,12
480,89	3023,98
481,34	3026,42
481,80	3027,90
482,26	3025,95
482,71	3023,25
483,17	3025,82
483,63	3024,75
484,08	3027,78
484,54	3025,08
485,00	3026,45
485,45	3024,65
485,91	3027,12
486,37	3028,70
486,82	3024,98
487,28	3027,05
487,74	3024,85
488,19	3029,05
488,65	3028,05
489,10	3025,78
489,56	3025,42
490,02	3025,98
490,47	3026,90
490,93	3026,05
491,39	3028,68
491,84	3025,10
492,30	3027,18
492,75	3028,18
493,21	3028,08
493,67	3025,72
494,12	3023,30
494,58	3026,45
495,03	3026,32
495,49	3027,85
495,95	3023,90
496,40	3025,98
496,86	3025,45
497,31	3028,40
497,77	3027,92
498,23	3029,08
498,68	3025,20
499,14	3027,95
499,59	3025,78
500,05	3027,38
500,50	3025,05
500,96	3029,75
501,41	3027,52
501,87	3026,22
502,33	3027,22
502,78	3026,58
503,24	3027,42
503,69	3025,40
504,15	3028,82
504,60	3026,52
505,06	3028,40
505,51	3031,00
505,97	3030,60
506,42	3027,55
506,88	3029,12
507,33	3026,75
507,79	3032,42
508,24	3029,35
508,70	3025,85
509,15	3028,15
509,61	3026,45
510,06	3029,98
510,52	3028,40
510,97	3029,62
511,43	3028,05
511,88	3027,82
512,34	3028,15
512,79	3030,65
513,25	3028,70
513,70	3026,50
514,16	3028,48
514,61	3029,00
515,07	3027,72
515,52	3028,90
515,98	3028,88
516,43	3027,18
516,89	3026,68
517,34	3026,95
517,80	3029,82
518,25	3027,05
518,70	3027,50
519,16	3030,38
519,61	3030,35
520,07	3027,95
520,52	3026,45
520,98	3027,45
521,43	3028,25
521,89	3023,30
522,34	3031,45
522,79	3030,50
523,25	3025,88
523,70	3027,55
524,16	3030,30
524,61	3030,25
525,06	3032,82
525,52	3029,28
525,97	3028,58
526,43	3035,80
526,88	3028,30
527,33	3029,48
527,79	3025,92
528,24	3027,45
528,70	3030,15
529,15	3029,05
529,60	3030,48
530,06	3028,80
530,51	3028,52
530,97	3032,08
531,42	3028,70
531,87	3027,65
532,33	3032,00
532,78	3028,28
533,23	3029,25
533,69	3030,68
534,14	3027,92
534,59	3030,08
535,05	3027,72
535,50	3028,30
535,96	3030,15
536,41	3029,88
536,86	3026,98
537,32	3026,78
537,77	3029,40
538,22	3030,22
538,68	3027,45
539,13	3030,08
539,58	3030,20
540,03	3027,28
540,49	3029,48
540,94	3029,08
541,39	3028,00
541,85	3028,65
542,30	3028,75
542,75	3028,25
543,21	3028,55
543,66	3028,70
544,11	3030,85
544,57	3027,45
545,02	3029,68
545,47	3030,22
545,92	3028,50
546,38	3032,38
546,83	3032,18
547,28	3039,65
547,73	3026,98
548,19	3032,12
548,64	3029,82
549,09	3029,02
549,55	3031,00
550,00	3033,30
550,45	3030,52
550,90	3035,68
551,36	3029,10
551,81	3034,75
552,26	3032,98
552,71	3030,70
553,17	3030,75
553,62	3031,68
554,07	3031,40
554,52	3032,52
554,97	3033,62
555,43	3033,10
555,88	3030,92
556,33	3032,20
556,78	3031,65
557,24	3036,72
557,69	3032,78
558,14	3031,02
558,59	3033,70
559,04	3034,55
559,50	3037,70
559,95	3035,70
560,40	3033,02
560,85	3037,85
561,30	3035,32
561,76	3035,45
562,21	3035,28
562,66	3036,32
563,11	3042,42
563,56	3038,55
564,01	3041,52
564,47	3036,25
564,92	3041,18
565,37	3043,58
565,82	3042,45
566,27	3041,05
566,72	3041,12
567,18	3044,22
567,63	3043,55
568,08	3044,28
568,53	3045,95
568,98	3047,65
569,43	3046,45
569,88	3048,88
570,34	3051,82
570,79	3052,70
571,24	3049,72
571,69	3054,42
572,14	3054,78
572,59	3057,48
573,04	3058,32
573,49	3063,72
573,94	3063,18
574,40	3063,15
574,85	3068,02
575,30	3071,40
575,75	3072,95
576,20	3073,68
576,65	3079,68
577,10	3079,68
577,55	3084,08
578,00	3088,55
578,45	3093,55
578,91	3096,55
579,36	3102,25
579,81	3104,85
580,26	3108,42
580,71	3112,85
581,16	3121,98
581,61	3129,45
582,06	3134,20
582,51	3137,40
582,96	3147,10
583,41	3150,65
583,86	3164,08
584,31	3169,22
584,76	3181,50
585,21	3188,70
585,66	3203,50
586,11	3210,12
586,56	3223,00
587,01	3237,20
587,46	3248,70
587,92	3264,22
588,37	3276,25
588,82	3291,12
589,27	3309,45
589,72	3321,18
590,17	3341,02
590,62	3362,38
591,07	3380,18
591,52	3403,38
591,97	3424,80
592,42	3453,32
592,87	3473,22
593,32	3495,08
593,77	3524,40
594,22	3552,65
594,67	3583,12
595,12	3616,10
595,56	3651,68
596,01	3682,02
596,46	3718,58
596,91	3763,65
597,36	3799,00
597,81	3839,88
598,26	3887,85
598,71	3940,45
599,16	3982,88
599,61	4038,35
600,06	4089,62
600,51	4155,28
600,96	4214,82
601,41	4280,85
601,86	4347,52
602,31	4413,45
602,76	4485,12
603,21	4576,05
603,66	4650,70
604,11	4743,82
604,55	4832,05
605,00	4927,72
605,45	5013,78
605,90	5127,40
606,35	5234,62
606,80	5358,58
607,25	5481,65
607,70	5600,50
608,15	5743,22
608,60	5883,05
609,04	6026,05
609,49	6185,58
609,94	6351,20
610,39	6509,68
610,84	6688,72
611,29	6890,30
611,74	7072,90
612,19	7273,35
612,64	7489,18
613,08	7717,95
613,53	7955,82
613,98	8204,82
614,43	8465,08
614,88	8743,48
615,33	9032,35
615,78	9334,78
616,22	9638,50
616,67	9965,80
617,12	10313,05
617,57	10650,25
618,02	11034,85
618,47	11438,60
618,91	11842,60
619,36	12249,42
619,81	12702,68
620,26	13159,55
620,71	13603,22
621,16	14108,20
621,60	14625,92
622,05	15132,70
622,50	15658,28
622,95	16216,30
623,40	16773,65
623,84	17354,98
624,29	17946,88
624,74	18562,45
625,19	19210,40
625,64	19867,65
626,08	20607,32
626,53	21330,12
626,98	22124,25
627,43	22935,40
627,87	23763,38
628,32	24669,18
628,77	25605,95
629,22	26635,65
629,66	27714,25
630,11	28826,58
630,56	29997,32
631,01	31195,70
631,46	32433,50
631,90	33767,00
632,35	35117,48
632,80	36448,80
633,25	37846,75
633,69	39221,78
634,14	40635,40
634,59	41986,38
635,03	43358,78
635,48	44777,42
635,93	46157,45
636,38	47515,10
636,82	48881,00
637,27	50179,50
637,72	51484,70
638,16	52804,35
638,61	54051,60
639,06	55282,48
639,51	56367,65
639,95	57251,80
640,40	57921,50
640,85	58318,48
641,29	58309,70
641,74	58023,10
642,19	57377,88
642,63	56237,55
643,08	54809,62
643,53	53021,38
643,97	50973,10
644,42	48666,45
644,87	46244,85
645,31	43737,82
645,76	41247,25
646,21	38826,72
646,65	36468,98
647,10	34261,80
647,55	32137,75
647,99	30160,08
648,44	28389,18
648,89	26736,65
649,33	25213,55
649,78	23832,25
650,23	22537,05
650,67	21376,60
651,12	20258,75
651,56	19186,60
652,01	18211,45
652,46	17310,70
652,90	16454,85
653,35	15656,55
653,80	14870,28
654,24	14124,35
654,69	13416,05
655,13	12753,50
655,58	12152,95
656,03	11581,55
656,47	11029,18
656,92	10474,95
657,36	9965,72
657,81	9485,90
658,26	9022,28
658,70	8604,68
659,15	8215,95
659,59	7849,88
660,04	7515,05
660,48	7193,52
660,93	6897,38
661,38	6615,58
661,82	6354,95
662,27	6129,05
662,71	5907,60
663,16	5707,60
663,60	5526,08
664,05	5364,50
664,49	5205,58
664,94	5063,85
665,38	4938,68
665,83	4806,18
666,28	4691,18
666,72	4584,48
667,17	4480,00
667,61	4399,75
668,06	4306,45
668,50	4234,95
668,95	4165,98
669,39	4092,88
669,84	4023,98
670,28	3968,72
670,73	3906,30
671,17	3858,30
671,62	3805,22
672,06	3766,72
672,51	3713,20
672,95	3672,95
673,40	3635,22
673,84	3588,32
674,29	3564,92
674,73	3525,38
675,18	3498,45
675,62	3463,42
676,07	3439,68
676,51	3414,55
676,95	3386,92
677,40	3367,00
677,84	3348,22
678,29	3326,00
678,73	3305,60
679,18	3291,78
679,62	3277,72
680,07	3259,05
680,51	3243,00
680,96	3228,28
681,40	3214,72
681,84	3204,80
682,29	3196,38
682,73	3188,78
683,18	3180,08
683,62	3173,80
684,07	3162,02
684,51	3155,58
684,95	3148,22
685,40	3142,18
685,84	3136,50
686,29	3129,30
686,73	3122,05
687,17	3115,98
687,62	3114,32
688,06	3109,20
688,51	3107,40
688,95	3101,50
689,39	3096,15
689,84	3097,02
690,28	3091,42
690,73	3089,98
691,17	3085,90
691,61	3078,52
692,06	3078,15
692,50	3077,95
692,94	3072,52
693,39	3072,38
693,83	3068,08
694,27	3072,12
694,72	3069,52
695,16	3061,68
695,60	3062,15
696,05	3059,85
696,49	3056,28
696,94	3055,98
697,38	3053,25
697,82	3052,25
698,27	3053,02
698,71	3052,40
699,15	3054,05
699,59	3050,20
700,04	3049,95
700,48	3056,48
700,92	3046,62
701,37	3046,30
701,81	3049,15
702,25	3046,30
702,70	3044,28
703,14	3043,15
703,58	3041,98
704,03	3043,28
704,47	3045,70
704,91	3041,28
705,35	3038,38
705,80	3042,00
706,24	3042,60
706,68	3046,52
707,13	3037,72
707,57	3040,30
708,01	3037,70
708,45	3036,72
708,90	3037,20
709,34	3037,48
709,78	3036,20
710,22	3039,38
710,67	3038,05
711,11	3039,02
711,55	3035,25
711,99	3034,30
712,44	3036,32
712,88	3033,55
713,32	3036,78
713,76	3036,40
714,21	3032,98
714,65	3032,38
715,09	3031,98
715,53	3032,95
715,97	3032,05
716,42	3033,58
716,86	3032,45
717,30	3032,28
717,74	3031,68
718,18	3036,62
718,63	3033,65
719,07	3033,72
719,51	3036,12
719,95	3034,32
720,39	3030,42
720,84	3032,62
721,28	3032,15
721,72	3030,60
722,16	3029,30
722,60	3029,72
723,04	3031,32
723,49	3034,78
723,93	3030,75
724,37	3028,68
724,81	3031,20
725,25	3029,92
725,69	3029,58
726,14	3031,22
726,58	3028,78
727,02	3031,20
727,46	3031,02
727,90	3029,95
728,34	3027,28
728,78	3031,88
729,23	3028,38
729,67	3031,55
730,11	3028,70
730,55	3030,62
730,99	3029,90
731,43	3031,95
731,87	3033,30
732,31	3029,75
732,76	3031,28
733,20	3030,88
733,64	3029,75
734,08	3032,72
734,52	3028,75
734,96	3030,48
735,40	3029,02
735,84	3027,70
736,28	3030,62
736,72	3028,90
737,16	3029,65
737,61	3029,82
738,05	3030,20
738,49	3029,55
738,93	3027,80
739,37	3030,30
739,81	3031,58
740,25	3030,68
740,69	3033,55
741,13	3028,10
741,57	3030,92
742,01	3031,72
742,45	3029,62
742,89	3028,95
743,33	3028,28
743,77	3029,70
744,21	3027,12
744,65	3030,12
745,09	3031,05
745,53	3026,52
745,98	3026,95
746,42	3028,82
746,86	3029,48
747,30	3029,62
747,74	3026,50
748,18	3027,80
748,62	3029,68
749,06	3030,12
749,50	3030,62
749,94	3028,50
750,38	3031,00
750,82	3032,48
751,26	3025,50
751,70	3026,45
752,14	3025,28
752,58	3030,72
753,02	3027,22
753,45	3027,48
753,89	3029,52
754,33	3033,75
754,77	3027,32
755,21	3029,22
755,65	3027,08
756,09	3027,98
756,53	3026,90
756,97	3027,42
757,41	3031,02
757,85	3025,40
758,29	3027,60
758,73	3025,45
759,17	3028,72
759,61	3025,70
760,05	3026,88
760,49	3029,00
760,93	3031,05
761,37	3027,10
761,80	3029,92
762,24	3027,60
762,68	3026,62
763,12	3028,10
763,56	3027,82
764,00	3025,40
764,44	3027,90
764,88	3028,22
765,32	3025,20
765,76	3030,25
766,20	3029,25
766,63	3026,22
767,07	3025,25
767,51	3028,28
767,95	3028,38
768,39	3028,38
768,83	3025,48
769,27	3025,15
769,71	3028,45
770,14	3026,00
770,58	3025,65
771,02	3026,05
771,46	3027,42
771,90	3026,92
772,34	3026,15
772,78	3027,68
773,21	3026,48
773,65	3029,70
774,09	3024,88
774,53	3028,50
774,97	3025,98
775,41	3024,30
775,84	3026,48
776,28	3025,58
776,72	3025,00
777,16	3024,30
777,60	3027,98
778,04	3025,08
778,47	3023,18
778,91	3025,45
779,35	3024,38
779,79	3026,62
780,23	3025,15
780,66	3024,58
781,10	3026,42
781,54	3025,98
781,98	3028,80
782,42	3027,70
782,85	3025,98
783,29	3025,48
783,73	3031,25
784,17	3029,50
784,61	3026,68
785,04	3026,75
785,48	3026,60
785,92	3025,05
786,36	3027,55
786,79	3024,18
787,23	3025,70
787,67	3026,28
788,11	3026,48
788,54	3027,48
788,98	3025,05
789,42	3026,68
789,86	3024,12
790,29	3029,10
790,73	3027,22
791,17	3028,08
791,60	3026,70
792,04	3023,72
792,48	3026,42
792,92	3025,58
793,35	3025,20
793,79	3025,22
794,23	3026,85
794,67	3023,32
795,10	3026,52
795,54	3027,50
795,98	3024,50
796,41	3026,28
796,85	3025,92
797,29	3035,22
797,72	3026,15
798,16	3025,08
798,60	3027,78
799,03	3024,08
799,47	3024,85
799,91	3024,98
800,34	3026,05
800,78	3023,88
801,22	3023,80
801,65	3022,88
802,09	3024,55
802,53	3028,60
802,96	3024,88
803,40	3024,12
803,84	3028,80
804,27	3026,08
804,71	3025,05
805,15	3025,38
805,58	3025,68
806,02	3022,48
806,46	3026,90
806,89	3029,02
807,33	3024,98
807,76	3027,20
808,20	3025,52
808,64	3024,12
809,07	3027,70
809,51	3029,12
809,95	3029,58
810,38	3026,30
810,82	3027,95
811,25	3024,75
811,69	3027,10
812,13	3024,82
812,56	3023,95
813,00	3025,40
813,43	3025,28
813,87	3023,00
814,30	3025,55
814,74	3026,72
815,18	3031,70
815,61	3023,62
816,05	3024,00
816,48	3025,92
816,92	3027,68
817,35	3025,48
817,79	3025,22
818,23	3026,92
818,66	3025,05
819,10	3026,20
819,53	3025,78
819,97	3021,72
820,40	3024,85
820,84	3027,10
821,27	3026,05
821,71	3026,98
822,14	3025,42
822,58	3025,95
823,01	3027,52
823,45	3024,98
823,88	3024,70
824,32	3024,90
824,75	3023,92
825,19	3021,80
825,63	3028,80
826,06	3023,32
826,50	3023,78
826,93	3025,12
827,37	3022,28
827,80	3026,35
828,23	3022,78
828,67	3024,90
829,10	3025,75
829,54	3022,78
829,97	3024,25
830,41	3021,42
830,84	3023,85
831,28	3024,28
831,71	3027,45
832,15	3024,35
832,58	3024,72
833,02	3025,00
833,45	3023,30
833,89	3028,30
834,32	3023,55
834,75	3029,78
835,19	3026,10
835,62	3027,52
836,06	3022,28
836,49	3025,40
836,93	3024,52
837,36	3025,78
837,79	3025,00
838,23	3023,42
838,66	3022,95
839,10	3025,70
839,53	3025,12
839,97	3024,98
840,40	3025,70
840,83	3025,50
841,27	3023,48
841,70	3024,52
842,14	3026,58
842,57	3023,35
843,00	3024,68
843,44	3027,75
843,87	3024,70
844,31	3026,78
844,74	3022,35
845,17	3023,75
845,61	3023,20
846,04	3023,88
846,47	3024,98
846,91	3024,68
847,34	3025,90
847,77	3025,08
848,21	3024,62
848,64	3025,12
849,08	3024,52
849,51	3025,88
849,94	3023,50
850,38	3023,38
850,81	3022,90
851,24	3023,52
851,68	3023,62
852,11	3022,92
852,54	3025,92
852,98	3026,50
853,41	3024,78
853,84	3023,80
854,28	3027,48
854,71	3023,38
855,14	3023,95
855,57	3024,62
856,01	3024,12
856,44	3022,28
856,87	3026,10
857,31	3022,02
857,74	3024,88
858,17	3022,15
858,61	3020,80
859,04	3024,82
859,47	3026,82
859,90	3024,30
860,34	3025,65
860,77	3024,25
861,20	3023,22
861,63	3025,85
862,07	3020,32
862,50	3021,80
862,93	3022,48
863,37	3020,62
863,80	3022,38
864,23	3025,40
864,66	3022,35
865,10	3023,42
865,53	3025,10
865,96	3022,60
866,39	3022,58
866,82	3023,62
867,26	3021,62
867,69	3025,25
868,12	3023,48
868,55	3021,45
868,99	3024,12
869,42	3022,05
869,85	3025,78
870,28	3021,72
870,71	3024,02
871,15	3024,10
871,58	3023,12
872,01	3024,90
872,44	3023,00
872,87	3025,98
873,31	3028,68
873,74	3022,38
874,17	3022,68
874,60	3023,68
875,03	3022,25
875,47	3022,22
875,90	3024,12
876,33	3021,82
876,76	3025,18
877,19	3023,92
877,62	3023,05
878,06	3019,30
878,49	3026,50
878,92	3018,58
879,35	3024,75
879,78	3022,25
880,21	3023,30
880,64	3024,95
881,08	3023,75
881,51	3026,15
881,94	3024,00
882,37	3026,50
882,80	3023,42
883,23	3021,85
883,66	3023,42
884,09	3023,80
884,53	3025,38
884,96	3024,02
885,39	3023,82
885,82	3023,85
886,25	3021,85
886,68	3021,10
887,11	3024,12
887,54	3021,05
887,97	3023,88
888,40	3024,58
888,84	3022,25
889,27	3022,00
889,70	3026,28
890,13	3020,85
890,56	3022,35
890,99	3023,65
891,42	3022,95
891,85	3029,72
892,28	3021,82
892,71	3023,40
893,14	3023,55
893,57	3025,05
894,00	3023,48
894,43	3022,05
894,86	3021,72
895,29	3020,88
895,73	3022,42
896,16	3022,05
896,59	3024,25
897,02	3022,82
897,45	3025,45
897,88	3021,25
898,31	3022,55
898,74	3023,22
899,17	3022,85
899,60	3020,55
900,03	3021,50
900,46	3021,58
900,89	3024,02
901,32	3025,60
901,75	3021,58
902,18	3021,15
902,61	3021,40
903,04	3023,78
903,47	3023,52
903,90	3021,78
904,33	3027,35
904,76	3024,55
905,19	3022,62
905,62	3023,00
906,05	3025,68
906,48	3023,48
906,91	3024,12
907,34	3022,02
907,76	3023,22
908,19	3021,62
908,62	3025,80
909,05	3021,92
909,48	3025,80
909,91	3022,52
910,34	3021,88
910,77	3023,55
911,20	3024,40
911,63	3021,85
912,06	3019,78
912,49	3023,42
912,92	3023,70
913,35	3022,55
913,78	3022,78
914,21	3021,65
914,63	3022,50
915,06	3024,12
915,49	3021,30
915,92	3022,40
916,35	3022,38
916,78	3020,35
917,21	3020,42
917,64	3021,30
918,07	3020,72
918,50	3023,68
918,92	3023,20
919,35	3024,70
919,78	3022,40
920,21	3023,12
920,64	3019,45
921,07	3022,05
921,50	3021,78
921,93	3022,95
922,35	3025,22
922,78	3022,35
923,21	3026,62
923,64	3022,45
924,07	3020,12
924,50	3021,98
924,92	3020,92
925,35	3022,80
925,78	3024,72
926,21	3023,10
926,64	3020,75
927,07	3023,78
927,49	3020,98
927,92	3022,52
928,35	3026,32
928,78	3021,45
929,21	3021,68
929,64	3021,48
930,06	3025,20
930,49	3021,78
930,92	3019,95
931,35	3023,92
931,78	3021,18
932,20	3023,98
932,63	3023,72
933,06	3021,68
933,49	3023,25
933,92	3021,92
934,34	3024,85
934,77	3022,98
935,20	3028,30
935,63	3021,68
936,05	3023,38
936,48	3024,02
936,91	3023,30
937,34	3023,50
937,76	3019,38
938,19	3020,08
938,62	3022,00
939,05	3022,12
939,47	3020,10
939,90	3024,58
940,33	3021,98
940,76	3021,15
941,18	3023,95
941,61	3019,32
942,04	3023,75
942,47	3022,70
942,89	3026,20
943,32	3022,12
943,75	3023,35
944,17	3019,52
944,60	3020,58
945,03	3025,82
945,46	3021,58
945,88	3020,35
946,31	3023,32
946,74	3019,68
947,16	3022,15
947,59	3021,48
948,02	3021,68
948,44	3022,22
948,87	3024,58
949,30	3021,65
949,72	3022,02
950,15	3023,80
950,58	3020,80
951,00	3020,78
951,43	3019,62
951,86	3027,48
952,28	3024,30
952,71	3021,65
953,14	3021,22
953,56	3021,88
953,99	3018,90
954,42	3022,82
954,84	3021,62
955,27	3025,10
955,70	3020,88
956,12	3019,60
956,55	3021,38
956,98	3019,88
957,40	3022,72
957,83	3025,20
958,25	3019,42
958,68	3024,38
959,11	3027,50
959,53	3021,30
959,96	3023,00
960,38	3022,00
960,81	3021,40
961,24	3022,10
961,66	3022,70
962,09	3019,22
962,51	3021,15
962,94	3021,85
963,37	3022,25
963,79	3024,30
964,22	3024,80
964,64	3021,62
965,07	3023,25
965,49	3019,48
965,92	3022,92
966,35	3021,60
966,77	3019,95
967,20	3024,08
967,62	3021,30
968,05	3021,02
968,47	3023,38
968,90	3019,20
969,32	3022,35
969,75	3023,88
970,17	3031,45
970,60	3023,18
971,03	3022,05
971,45	3022,48
971,88	3020,55
972,30	3019,70
972,73	3023,92
973,15	3020,80
973,58	3022,20
974,00	3019,60
974,43	3020,70
974,85	3020,35
975,28	3022,58
975,70	3020,45
976,13	3023,75
976,55	3021,65
976,98	3022,30
977,40	3019,32
977,83	3020,32
978,25	3021,18
978,68	3020,25
979,10	3022,72
979,53	3020,98
979,95	3021,82
980,37	3022,92
980,80	3020,42
981,22	3024,70
981,65	3020,95
982,07	3020,98
982,50	3022,00
982,92	3024,90
983,35	3021,80
983,77	3021,05
984,20	3020,98
984,62	3021,02
985,04	3020,85
985,47	3024,20
985,89	3021,05
986,32	3019,55
986,74	3018,65
987,17	3021,65
987,59	3022,30
988,01	3019,62
988,44	3019,28
988,86	3022,02
989,29	3021,90
989,71	3020,38
990,13	3022,60
990,56	3020,18
990,98	3023,12
991,41	3020,72
991,83	3023,12
992,25	3020,60
992,68	3021,50
993,10	3025,55
993,53	3022,28
993,95	3019,05
994,37	3020,28
994,80	3020,38
995,22	3021,65
995,64	3022,50
996,07	3023,88
996,49	3021,18
996,91	3022,05
997,34	3019,85
997,76	3019,78
998,18	3020,50
998,61	3024,30
999,03	3023,25
999,45	3020,25
999,88	3022,08
1000,30	3020,78
1000,72	3023,68
1001,15	3023,90
1001,57	3021,68
1001,99	3023,82
1002,42	3019,35
1002,84	3020,82
1003,26	3023,50
1003,69	3019,95
1004,11	3023,42
1004,53	3022,18
1004,96	3022,68
1005,38	3020,05
1005,80	3021,82
1006,22	3023,92
1006,65	3023,90
1007,07	3021,10
1007,49	3020,48
1007,92	3022,62
1008,34	3021,05
1008,76	3020,35
1009,18	3019,60
1009,61	3021,68
1010,03	3019,82
1010,45	3029,25
1010,87	3023,45
1011,30	3022,70
1011,72	3022,65
1012,14	3020,52
1012,56	3022,45
1012,99	3021,80
1013,41	3023,82
1013,83	3022,30
1014,25	3023,40
1014,68	3022,42
1015,10	3018,75
1015,52	3025,05
1015,94	3019,32
1016,37	3022,08
1016,79	3022,55
1017,21	3020,78
1017,63	3019,50
1018,05	3022,08
1018,48	3020,08
1018,90	3021,90
1019,32	3020,82
1019,74	3020,08
1020,16	3027,15
1020,59	3022,35
1021,01	3023,10
1021,43	3021,15
1021,85	3020,50
1022,27	3020,95
1022,69	3022,40
1023,12	3023,12
1023,54	3022,65
1023,96	3028,78
1024,38	3024,80
1024,80	3023,05
1025,22	3021,95
1025,65	3022,18
1026,07	3022,68
1026,49	3024,62
1026,91	3019,15
1027,33	3020,42
1027,75	3026,30
1028,17	3024,28
1028,60	3020,48
1029,02	3021,82
1029,44	3022,82
1029,86	3020,80
1030,28	3027,08
1030,70	3023,15
1031,12	3020,62
1031,54	3025,30
1031,97	3024,75
1032,39	3021,00
1032,81	3023,05
1033,23	3024,80
1033,65	3024,72
1034,07	3025,88
1034,49	3021,85
1034,91	3022,82
1035,33	3023,70
1035,75	3024,35
1036,18	3022,50
1036,60	3028,08
1037,02	3022,95
1037,44	3020,98
1037,86	3026,70
1038,28	3021,40
1038,70	3026,35
1039,12	3026,18
1039,54	3026,88
1039,96	3028,22
1040,38	3027,82
1040,80	3024,50
1041,22	3024,65
1041,64	3024,30
1042,06	3025,45
1042,48	3028,90
1042,90	3030,50
1043,32	3028,85
1043,74	3026,70
1044,17	3028,05
1044,59	3029,35
1045,01	3026,22
1045,43	3028,15
1045,85	3029,05
1046,27	3026,45
1046,69	3030,28
1047,11	3030,40
1047,53	3028,52
1047,95	3030,85
1048,37	3032,35
1048,79	3027,88
1049,21	3030,88
1049,63	3032,00
1050,05	3032,68
1050,47	3030,55
1050,89	3029,50
1051,31	3033,48
1051,72	3032,02
1052,14	3035,62
1052,56	3035,15
1052,98	3034,68
1053,40	3036,10
1053,82	3029,02
1054,24	3033,00
1054,66	3031,55
1055,08	3034,50
1055,50	3033,72
1055,92	3034,88
1056,34	3034,35
1056,76	3038,30
1057,18	3039,18
1057,60	3035,20
1058,02	3035,88
1058,44	3042,18
1058,86	3033,15
1059,28	3036,10
1059,69	3037,38
1060,11	3035,90
1060,53	3035,65
1060,95	3034,92
1061,37	3038,88
1061,79	3036,65
1062,21	3034,70
1062,63	3037,45
1063,05	3038,32
1063,47	3037,12
1063,88	3035,80
1064,30	3035,82
1064,72	3038,95
1065,14	3040,18
1065,56	3035,18
1065,98	3035,32
1066,40	3035,35
1066,82	3036,95
1067,23	3036,28
1067,65	3034,48
1068,07	3037,20
1068,49	3036,88
1068,91	3041,42
1069,33	3036,55
1069,75	3034,55
1070,16	3035,08
1070,58	3039,02
1071,00	3039,08
1071,42	3039,62
1071,84	3036,55
1072,26	3039,12
1072,67	3036,22
1073,09	3035,12
1073,51	3033,95
1073,93	3038,22
1074,35	3036,55
1074,77	3034,22
1075,18	3037,15
1075,60	3035,80
1076,02	3038,40
1076,44	3037,55
1076,86	3036,25
1077,27	3036,90
1077,69	3039,32
1078,11	3037,38
1078,53	3038,15
1078,94	3041,90
1079,36	3033,98
1079,78	3035,92
1080,20	3039,52
1080,62	3037,98
1081,03	3038,50
1081,45	3036,92
1081,87	3035,78
1082,29	3037,32
1082,70	3037,68
1083,12	3037,00
1083,54	3037,48
1083,96	3036,18
1084,37	3038,82
1084,79	3037,08
1085,21	3036,60
1085,63	3039,30
1086,04	3037,62
1086,46	3036,48
1086,88	3038,02
1087,30	3034,22
1087,71	3039,00
1088,13	3132,10
1088,55	3035,00
1088,96	3034,55
1089,38	3038,38
1089,80	3035,88
1090,22	3041,02
1090,63	3036,70
1091,05	3036,08
1091,47	3036,35
1091,88	3034,92
1092,30	3035,05
1092,72	3036,45
1093,13	3034,65
1093,55	3036,72
1093,97	3036,88
1094,38	3037,08
1094,80	3035,58
1095,22	3036,35
1095,63	3035,58
1096,05	3037,18
1096,47	3038,40
1096,88	3036,45
1097,30	3036,68
1097,72	3036,32
1098,13	3038,72
1098,55	3038,10
1098,97	3037,52
1099,38	3035,25
1099,80	3036,75
1100,21	3034,40
1100,63	3036,80
1101,05	3035,42
1101,46	3037,75
1101,88	3034,02
1102,30	3036,02
1102,71	3037,38
1103,13	3036,58
1103,54	3035,75
1103,96	3036,50
1104,38	3039,70
1104,79	3033,35
1105,21	3034,40
1105,62	3034,52
1106,04	3033,95
1106,46	3037,00
1106,87	3032,65
1107,29	3034,55
1107,70	3038,30
1108,12	3036,22
1108,54	3035,32
1108,95	3037,32
1109,37	3036,95
1109,78	3031,65
1110,20	3036,62
1110,61	3033,28
1111,03	3033,28
1111,44	3033,28
1111,86	3033,28
1112,28	3033,28
1112,69	3033,28
1113,11	3033,28
1113,52	3033,28
1113,94	3033,28
1114,35	3033,28
1114,77	3033,28
1115,18	3033,28
1115,60	3033,28
1116,01	3033,28
1116,43	3033,28
1116,84	3033,28
1117,26	3033,28
1117,67	3033,28
1118,09	3033,28
1118,50	3033,28
1118,92	3033,28
>>>>>End Processed Spectral Data<<<<<
