SpectraSuite Data File
++++++++++++++++++++++++++++++++++++
Date: Tue Jul 12 15:21:05 EEST 2011
User: OO Maya
Dark Spectrum Present: No
Reference Spectrum Present: No
Number of Sampled Component Spectra: 1
Spectrometers: MAYP11278
Integration Time (usec): 50000 (MAYP11278)
Spectra Averaged: 40 (MAYP11278)
Boxcar Smoothing: 0 (MAYP11278)
Correct for Electrical Dark: No (MAYP11278)
Strobe/Lamp Enabled: No (MAYP11278)
Correct for Detector Non-linearity: No (MAYP11278)
Correct for Stray Light: No (MAYP11278)
Number of Pixels in Processed Spectrum: 2068
>>>>>Begin Processed Spectral Data<<<<<
200,00	3071,50
200,47	2986,15
200,95	2986,28
201,42	2986,12
201,89	3061,58
202,37	3061,90
202,84	3058,88
203,31	3063,00
203,79	3068,15
204,26	3061,52
204,73	3060,80
205,20	3058,50
205,68	3064,68
206,15	3063,45
206,62	3068,42
207,10	3066,42
207,57	3070,62
208,04	3062,58
208,51	3063,60
208,99	3078,82
209,46	3062,55
209,93	3058,85
210,41	3062,15
210,88	3060,65
211,35	3065,05
211,82	3068,92
212,30	3063,82
212,77	3065,30
213,24	3071,42
213,71	3066,45
214,19	3068,88
214,66	3060,02
215,13	3066,52
215,60	3061,52
216,08	3067,90
216,55	3073,12
217,02	3063,12
217,49	3061,55
217,96	3070,52
218,44	3061,90
218,91	3063,88
219,38	3078,90
219,85	3065,22
220,33	3069,35
220,80	3063,15
221,27	3070,22
221,74	3069,60
222,21	3064,25
222,69	3065,88
223,16	3067,55
223,63	3065,50
224,10	3064,12
224,57	3075,38
225,04	3068,00
225,52	3062,28
225,99	3078,25
226,46	3068,78
226,93	3073,15
227,40	3067,52
227,87	3068,75
228,35	3067,08
228,82	3068,50
229,29	3063,65
229,76	3066,95
230,23	3070,35
230,70	3059,65
231,18	3061,68
231,65	3064,20
232,12	3064,50
232,59	3071,65
233,06	3063,72
233,53	3071,62
234,00	3061,32
234,48	3072,10
234,95	3061,05
235,42	3071,85
235,89	3066,22
236,36	3066,68
236,83	3060,78
237,30	3066,78
237,77	3064,30
238,24	3065,32
238,72	3070,22
239,19	3065,05
239,66	3067,78
240,13	3068,48
240,60	3070,08
241,07	3065,98
241,54	3064,15
242,01	3064,10
242,48	3071,00
242,95	3074,60
243,42	3067,00
243,90	3068,68
244,37	3060,32
244,84	3067,85
245,31	3067,78
245,78	3084,55
246,25	3068,08
246,72	3063,35
247,19	3062,90
247,66	3062,95
248,13	3071,48
248,60	3076,35
249,07	3064,42
249,54	3069,40
250,01	3065,40
250,48	3066,35
250,95	3066,02
251,42	3059,98
251,89	3070,35
252,36	3073,62
252,83	3068,42
253,30	3062,88
253,77	3070,30
254,24	3071,92
254,71	3061,65
255,18	3063,68
255,65	3072,38
256,12	3074,52
256,59	3066,18
257,06	3071,95
257,53	3070,38
258,00	3062,05
258,47	3067,30
258,94	3067,55
259,41	3068,40
259,88	3068,38
260,35	3058,88
260,82	3066,52
261,29	3068,38
261,76	3069,85
262,23	3072,90
262,70	3067,28
263,17	3077,78
263,64	3072,80
264,11	3062,28
264,58	3072,38
265,05	3069,68
265,52	3065,98
265,99	3067,10
266,46	3069,55
266,93	3069,18
267,40	3063,30
267,87	3069,38
268,34	3069,32
268,81	3070,25
269,28	3082,82
269,74	3067,15
270,21	3064,65
270,68	3069,72
271,15	3072,38
271,62	3075,98
272,09	3065,52
272,56	3065,40
273,03	3075,72
273,50	3062,20
273,97	3067,15
274,44	3071,70
274,90	3061,50
275,37	3072,78
275,84	3072,45
276,31	3065,02
276,78	3068,10
277,25	3070,00
277,72	3071,88
278,19	3065,58
278,66	3066,62
279,12	3067,62
279,59	3069,62
280,06	3060,98
280,53	3064,90
281,00	3065,15
281,47	3068,98
281,94	3073,80
282,40	3066,78
282,87	3069,40
283,34	3058,72
283,81	3063,60
284,28	3059,35
284,75	3067,92
285,21	3088,60
285,68	3074,05
286,15	3072,82
286,62	3065,60
287,09	3063,98
287,56	3072,78
288,02	3071,62
288,49	3062,75
288,96	3066,58
289,43	3062,52
289,90	3090,58
290,36	3066,18
290,83	3063,00
291,30	3088,10
291,77	3072,20
292,24	3083,80
292,70	3067,00
293,17	3074,88
293,64	3065,30
294,11	3066,28
294,58	3071,02
295,04	3067,25
295,51	3061,38
295,98	3072,40
296,45	3066,08
296,91	3070,50
297,38	3069,15
297,85	3060,85
298,32	3069,35
298,79	3078,25
299,25	3066,48
299,72	3072,38
300,19	3059,20
300,66	3076,50
301,12	3063,65
301,59	3068,48
302,06	3066,90
302,52	3071,52
302,99	3078,80
303,46	3066,00
303,93	3073,32
304,39	3065,02
304,86	3071,42
305,33	3069,30
305,80	3065,28
306,26	3068,95
306,73	3069,70
307,20	3078,78
307,66	3076,72
308,13	3069,80
308,60	3070,02
309,07	3071,82
309,53	3065,50
310,00	3077,22
310,47	3066,00
310,93	3071,02
311,40	3064,98
311,87	3072,75
312,33	3072,12
312,80	3071,72
313,27	3062,58
313,73	3071,40
314,20	3071,92
314,67	3064,62
315,13	3066,12
315,60	3064,15
316,07	3068,30
316,53	3068,35
317,00	3067,90
317,47	3070,78
317,93	3063,32
318,40	3063,40
318,87	3068,48
319,33	3066,68
319,80	3072,10
320,26	3074,02
320,73	3070,62
321,20	3070,62
321,66	3068,45
322,13	3065,98
322,60	3072,48
323,06	3067,62
323,53	3079,30
323,99	3064,75
324,46	3067,88
324,93	3067,32
325,39	3064,32
325,86	3066,35
326,32	3070,55
326,79	3070,65
327,26	3068,78
327,72	3071,10
328,19	3067,12
328,65	3083,40
329,12	3066,10
329,59	3068,42
330,05	3063,60
330,52	3069,42
330,98	3077,40
331,45	3072,30
331,91	3068,68
332,38	3059,50
332,85	3061,90
333,31	3077,22
333,78	3065,62
334,24	3069,48
334,71	3061,52
335,17	3069,80
335,64	3068,28
336,10	3065,90
336,57	3066,85
337,03	3065,85
337,50	3070,72
337,96	3069,15
338,43	3068,68
338,90	3070,38
339,36	3065,32
339,83	3067,60
340,29	3066,25
340,76	3065,15
341,22	3068,08
341,69	3067,75
342,15	3079,72
342,62	3062,15
343,08	3079,45
343,55	3071,08
344,01	3069,88
344,48	3073,30
344,94	3070,28
345,41	3069,05
345,87	3088,70
346,34	3063,60
346,80	3067,65
347,27	3066,18
347,73	3071,85
348,19	3065,95
348,66	3067,12
349,12	3079,08
349,59	3071,20
350,05	3063,00
350,52	3063,08
350,98	3063,08
351,45	3072,78
351,91	3073,20
352,38	3064,30
352,84	3069,90
353,30	3073,32
353,77	3070,15
354,23	3066,45
354,70	3068,68
355,16	3064,98
355,63	3069,15
356,09	3069,92
356,55	3065,98
357,02	3065,45
357,48	3076,98
357,95	3064,72
358,41	3073,90
358,87	3070,48
359,34	3062,78
359,80	3068,62
360,27	3071,85
360,73	3068,50
361,19	3065,32
361,66	3071,42
362,12	3078,35
362,59	3071,45
363,05	3066,25
363,51	3070,62
363,98	3071,42
364,44	3069,25
364,91	3071,82
365,37	3070,00
365,83	3079,05
366,30	3065,12
366,76	3077,45
367,22	3065,88
367,69	3081,52
368,15	3073,05
368,61	3059,80
369,08	3064,00
369,54	3065,12
370,00	3067,90
370,47	3072,92
370,93	3074,38
371,39	3065,18
371,86	3069,42
372,32	3067,90
372,78	3067,40
373,25	3068,72
373,71	3079,52
374,17	3072,18
374,64	3064,92
375,10	3070,88
375,56	3064,80
376,03	3060,62
376,49	3068,88
376,95	3066,92
377,42	3068,42
377,88	3060,28
378,34	3061,25
378,80	3075,50
379,27	3061,78
379,73	3072,90
380,19	3070,98
380,66	3064,92
381,12	3064,18
381,58	3068,60
382,04	3065,10
382,51	3062,60
382,97	3068,15
383,43	3069,18
383,89	3063,58
384,36	3064,05
384,82	3069,32
385,28	3061,58
385,74	3074,62
386,21	3063,90
386,67	3065,48
387,13	3061,18
387,59	3069,50
388,06	3068,40
388,52	3068,35
388,98	3067,30
389,44	3068,42
389,91	3071,72
390,37	3076,10
390,83	3067,92
391,29	3074,60
391,75	3076,32
392,22	3061,75
392,68	3068,05
393,14	3064,85
393,60	3072,42
394,06	3070,22
394,53	3097,50
394,99	3068,02
395,45	3067,28
395,91	3065,82
396,37	3078,52
396,84	3062,75
397,30	3061,35
397,76	3070,50
398,22	3069,50
398,68	3072,60
399,14	3064,32
399,61	3070,75
400,07	3068,60
400,53	3070,80
400,99	3070,82
401,45	3066,52
401,91	3067,40
402,38	3066,72
402,84	3066,65
403,30	3080,82
403,76	3066,52
404,22	3071,20
404,68	3064,68
405,14	3071,05
405,61	3093,40
406,07	3061,58
406,53	3069,42
406,99	3071,55
407,45	3065,12
407,91	3069,10
408,37	3066,65
408,83	3061,50
409,29	3072,15
409,76	3060,95
410,22	3068,12
410,68	3063,08
411,14	3072,15
411,60	3070,80
412,06	3071,58
412,52	3064,55
412,98	3077,65
413,44	3069,18
413,90	3075,48
414,36	3078,00
414,83	3073,58
415,29	3061,35
415,75	3074,05
416,21	3069,38
416,67	3081,22
417,13	3068,12
417,59	3068,30
418,05	3072,20
418,51	3062,20
418,97	3074,30
419,43	3063,12
419,89	3075,90
420,35	3063,82
420,81	3074,48
421,27	3062,05
421,73	3060,32
422,19	3073,98
422,65	3064,58
423,11	3072,32
423,57	3070,92
424,03	3077,20
424,49	3066,58
424,96	3079,28
425,42	3071,28
425,88	3068,10
426,34	3079,85
426,80	3071,15
427,26	3069,22
427,72	3074,08
428,18	3069,12
428,64	3075,00
429,10	3065,55
429,56	3073,00
430,02	3063,50
430,47	3071,58
430,93	3066,30
431,39	3070,45
431,85	3066,38
432,31	3069,70
432,77	3071,65
433,23	3073,42
433,69	3067,45
434,15	3074,12
434,61	3068,22
435,07	3079,00
435,53	3067,50
435,99	3076,12
436,45	3073,90
436,91	3074,85
437,37	3064,08
437,83	3075,05
438,29	3072,12
438,75	3068,38
439,21	3069,70
439,67	3088,35
440,12	3063,10
440,58	3069,50
441,04	3076,28
441,50	3076,18
441,96	3070,02
442,42	3064,70
442,88	3069,78
443,34	3069,02
443,80	3073,60
444,26	3064,65
444,72	3071,70
445,17	3071,08
445,63	3062,80
446,09	3073,32
446,55	3072,18
447,01	3071,42
447,47	3066,72
447,93	3068,62
448,39	3091,82
448,85	3069,68
449,30	3073,32
449,76	3076,32
450,22	3064,90
450,68	3067,68
451,14	3084,35
451,60	3062,85
452,06	3070,65
452,51	3072,20
452,97	3064,12
453,43	3078,22
453,89	3072,38
454,35	3070,48
454,81	3069,62
455,26	3071,60
455,72	3068,42
456,18	3070,48
456,64	3066,18
457,10	3068,25
457,56	3075,22
458,01	3073,85
458,47	3069,10
458,93	3065,15
459,39	3067,38
459,85	3067,35
460,30	3073,82
460,76	3074,55
461,22	3065,65
461,68	3075,75
462,14	3068,35
462,59	3070,42
463,05	3069,92
463,51	3073,28
463,97	3068,75
464,43	3071,42
464,88	3076,22
465,34	3068,80
465,80	3077,30
466,26	3069,10
466,71	3070,72
467,17	3063,08
467,63	3071,32
468,09	3068,50
468,54	3070,20
469,00	3066,82
469,46	3064,25
469,92	3074,48
470,37	3073,10
470,83	3065,15
471,29	3062,28
471,75	3076,48
472,20	3069,10
472,66	3070,90
473,12	3071,00
473,58	3066,28
474,03	3067,78
474,49	3076,50
474,95	3071,35
475,40	3071,60
475,86	3075,38
476,32	3070,00
476,78	3071,72
477,23	3070,90
477,69	3070,08
478,15	3064,82
478,60	3073,95
479,06	3071,70
479,52	3066,68
479,97	3069,02
480,43	3066,10
480,89	3068,30
481,34	3068,65
481,80	3076,88
482,26	3069,15
482,71	3065,35
483,17	3068,52
483,63	3065,10
484,08	3074,90
484,54	3070,12
485,00	3071,72
485,45	3068,08
485,91	3069,45
486,37	3077,75
486,82	3072,80
487,28	3073,70
487,74	3066,75
488,19	3078,55
488,65	3073,32
489,10	3069,72
489,56	3068,70
490,02	3070,38
490,47	3072,05
490,93	3065,30
491,39	3071,30
491,84	3063,72
492,30	3069,52
492,75	3079,12
493,21	3072,55
493,67	3071,82
494,12	3062,78
494,58	3069,45
495,03	3064,42
495,49	3071,02
495,95	3065,48
496,40	3067,25
496,86	3069,18
497,31	3072,68
497,77	3068,95
498,23	3075,90
498,68	3067,80
499,14	3072,52
499,59	3065,80
500,05	3068,88
500,50	3064,42
500,96	3075,48
501,41	3071,32
501,87	3070,48
502,33	3065,58
502,78	3070,78
503,24	3067,90
503,69	3066,20
504,15	3074,98
504,60	3069,68
505,06	3070,42
505,51	3082,50
505,97	3076,10
506,42	3069,95
506,88	3070,38
507,33	3070,32
507,79	3083,92
508,24	3071,35
508,70	3068,52
509,15	3070,95
509,61	3073,08
510,06	3072,28
510,52	3069,95
510,97	3071,28
511,43	3070,50
511,88	3072,92
512,34	3068,62
512,79	3076,02
513,25	3072,82
513,70	3066,48
514,16	3072,05
514,61	3076,30
515,07	3069,55
515,52	3073,78
515,98	3074,95
516,43	3067,30
516,89	3068,72
517,34	3065,52
517,80	3069,38
518,25	3071,38
518,70	3068,20
519,16	3078,20
519,61	3077,05
520,07	3068,98
520,52	3064,52
520,98	3068,60
521,43	3075,85
521,89	3062,62
522,34	3078,30
522,79	3080,10
523,25	3064,95
523,70	3072,52
524,16	3077,80
524,61	3076,42
525,06	3087,05
525,52	3074,45
525,97	3072,40
526,43	3094,90
526,88	3071,80
527,33	3067,05
527,79	3066,52
528,24	3067,80
528,70	3073,45
529,15	3074,52
529,60	3076,58
530,06	3071,25
530,51	3065,72
530,97	3081,00
531,42	3077,08
531,87	3070,10
532,33	3080,42
532,78	3074,38
533,23	3078,18
533,69	3079,18
534,14	3074,75
534,59	3071,98
535,05	3072,00
535,50	3070,45
535,96	3076,20
536,41	3076,28
536,86	3070,38
537,32	3067,48
537,77	3075,52
538,22	3076,48
538,68	3067,35
539,13	3078,40
539,58	3070,70
540,03	3072,40
540,49	3073,85
540,94	3075,88
541,39	3072,50
541,85	3068,70
542,30	3070,45
542,75	3071,80
543,21	3076,60
543,66	3071,42
544,11	3080,08
544,57	3070,05
545,02	3076,72
545,47	3071,15
545,92	3073,80
546,38	3083,82
546,83	3075,02
547,28	3106,38
547,73	3068,72
548,19	3082,32
548,64	3075,65
549,09	3068,58
549,55	3077,40
550,00	3076,10
550,45	3072,32
550,90	3089,55
551,36	3068,28
551,81	3084,68
552,26	3079,78
552,71	3074,72
553,17	3073,72
553,62	3079,75
554,07	3075,58
554,52	3078,75
554,97	3079,72
555,43	3076,48
555,88	3075,28
556,33	3074,78
556,78	3073,05
557,24	3088,82
557,69	3075,52
558,14	3070,95
558,59	3078,78
559,04	3077,58
559,50	3088,60
559,95	3078,45
560,40	3076,70
560,85	3082,90
561,30	3076,18
561,76	3076,20
562,21	3080,28
562,66	3080,70
563,11	3089,52
563,56	3080,60
564,01	3090,58
564,47	3073,80
564,92	3083,18
565,37	3094,12
565,82	3081,58
566,27	3082,42
566,72	3081,82
567,18	3080,98
567,63	3085,02
568,08	3088,42
568,53	3086,30
568,98	3087,50
569,43	3090,72
569,88	3089,40
570,34	3091,28
570,79	3102,28
571,24	3089,00
571,69	3098,75
572,14	3093,98
572,59	3097,78
573,04	3102,58
573,49	3108,12
573,94	3101,22
574,40	3102,82
574,85	3107,72
575,30	3118,65
575,75	3110,95
576,20	3113,68
576,65	3120,92
577,10	3121,28
577,55	3121,98
578,00	3130,38
578,45	3133,02
578,91	3132,18
579,36	3139,30
579,81	3145,58
580,26	3147,62
580,71	3149,55
581,16	3157,90
581,61	3169,48
582,06	3173,60
582,51	3170,45
582,96	3185,82
583,41	3182,22
583,86	3201,35
584,31	3202,75
584,76	3211,58
585,21	3217,78
585,66	3242,52
586,11	3244,65
586,56	3253,55
587,01	3270,45
587,46	3282,32
587,92	3288,78
588,37	3306,28
588,82	3319,60
589,27	3336,38
589,72	3343,35
590,17	3365,60
590,62	3390,82
591,07	3400,75
591,52	3430,25
591,97	3442,35
592,42	3478,20
592,87	3488,42
593,32	3515,72
593,77	3536,55
594,22	3571,40
594,67	3600,72
595,12	3624,70
595,56	3664,92
596,01	3692,88
596,46	3724,68
596,91	3769,15
597,36	3813,40
597,81	3846,55
598,26	3884,60
598,71	3946,65
599,16	3981,85
599,61	4035,95
600,06	4089,10
600,51	4149,15
600,96	4209,55
601,41	4274,78
601,86	4337,90
602,31	4405,35
602,76	4474,85
603,21	4560,78
603,66	4641,18
604,11	4730,55
604,55	4812,58
605,00	4898,28
605,45	5007,00
605,90	5116,45
606,35	5207,45
606,80	5334,48
607,25	5458,85
607,70	5579,98
608,15	5721,35
608,60	5848,92
609,04	6019,10
609,49	6159,72
609,94	6322,88
610,39	6480,52
610,84	6658,58
611,29	6853,60
611,74	7041,52
612,19	7248,78
612,64	7473,45
613,08	7690,35
613,53	7928,80
613,98	8179,18
614,43	8427,55
614,88	8700,50
615,33	8999,55
615,78	9313,82
616,22	9629,90
616,67	9939,38
617,12	10283,22
617,57	10649,48
618,02	11027,75
618,47	11450,90
618,91	11826,78
619,36	12256,98
619,81	12711,92
620,26	13165,52
620,71	13644,32
621,16	14131,15
621,60	14645,75
622,05	15151,55
622,50	15681,10
622,95	16236,98
623,40	16819,90
623,84	17411,15
624,29	18036,42
624,74	18661,58
625,19	19316,38
625,64	20040,85
626,08	20792,38
626,53	21577,62
626,98	22391,85
627,43	23294,70
627,87	24206,38
628,32	25145,88
628,77	26178,40
629,22	27297,88
629,66	28442,50
630,11	29604,65
630,56	30889,85
631,01	32162,65
631,46	33516,92
631,90	34883,52
632,35	36279,15
632,80	37693,85
633,25	39126,90
633,69	40559,35
634,14	41981,25
634,59	43364,30
635,03	44756,28
635,48	46202,65
635,93	47604,35
636,38	49050,05
636,82	50498,30
637,27	51894,82
637,72	53347,12
638,16	54647,22
638,61	55987,60
639,06	57079,95
639,51	58008,92
639,95	58597,98
640,40	58840,88
640,85	58742,82
641,29	58163,60
641,74	57149,42
642,19	55740,08
642,63	53965,30
643,08	51896,58
643,53	49541,85
643,97	47017,72
644,42	44402,88
644,87	41798,88
645,31	39254,90
645,76	36808,48
646,21	34543,92
646,65	32419,48
647,10	30424,00
647,55	28555,55
647,99	26876,38
648,44	25342,05
648,89	23922,05
649,33	22667,88
649,78	21473,10
650,23	20355,65
650,67	19334,88
651,12	18382,48
651,56	17433,12
652,01	16570,22
652,46	15773,60
652,90	15025,75
653,35	14295,38
653,80	13596,58
654,24	12918,95
654,69	12247,68
655,13	11686,00
655,58	11115,20
656,03	10600,75
656,47	10075,70
656,92	9607,02
657,36	9124,68
657,81	8705,10
658,26	8285,42
658,70	7917,25
659,15	7560,10
659,59	7244,85
660,04	6947,50
660,48	6673,68
660,93	6411,65
661,38	6168,50
661,82	5958,70
662,27	5739,10
662,71	5559,85
663,16	5387,05
663,60	5238,78
664,05	5086,58
664,49	4962,42
664,94	4830,38
665,38	4746,48
665,83	4615,60
666,28	4518,98
666,72	4421,68
667,17	4341,98
667,61	4269,50
668,06	4195,50
668,50	4122,35
668,95	4067,05
669,39	4000,30
669,84	3935,88
670,28	3887,88
670,73	3837,42
671,17	3802,30
671,62	3752,88
672,06	3710,45
672,51	3668,92
672,95	3646,08
673,40	3599,25
673,84	3559,25
674,29	3528,10
674,73	3499,45
675,18	3488,60
675,62	3440,30
676,07	3422,42
676,51	3404,85
676,95	3378,78
677,40	3365,30
677,84	3353,75
678,29	3322,88
678,73	3310,62
679,18	3298,98
679,62	3298,62
680,07	3265,48
680,51	3257,40
680,96	3235,30
681,40	3228,80
681,84	3225,08
682,29	3211,88
682,73	3207,42
683,18	3197,85
683,62	3209,95
684,07	3181,60
684,51	3177,42
684,95	3171,65
685,40	3167,38
685,84	3162,22
686,29	3158,88
686,73	3141,92
687,17	3140,10
687,62	3143,98
688,06	3141,85
688,51	3142,50
688,95	3135,50
689,39	3128,42
689,84	3134,88
690,28	3125,40
690,73	3122,68
691,17	3121,22
691,61	3114,65
692,06	3110,05
692,50	3113,42
692,94	3108,10
693,39	3108,42
693,83	3102,65
694,27	3121,58
694,72	3104,78
695,16	3092,45
695,60	3098,70
696,05	3097,22
696,49	3090,18
696,94	3094,05
697,38	3089,55
697,82	3094,78
698,27	3090,68
698,71	3097,30
699,15	3092,60
699,59	3089,10
700,04	3090,45
700,48	3112,52
700,92	3086,00
701,37	3085,75
701,81	3096,98
702,25	3085,60
702,70	3083,52
703,14	3085,22
703,58	3080,95
704,03	3086,52
704,47	3087,30
704,91	3077,85
705,35	3080,20
705,80	3086,28
706,24	3084,85
706,68	3105,30
707,13	3074,28
707,57	3088,22
708,01	3075,12
708,45	3075,70
708,90	3081,28
709,34	3077,58
709,78	3077,42
710,22	3086,40
710,67	3083,35
711,11	3082,50
711,55	3071,42
711,99	3082,32
712,44	3077,12
712,88	3074,88
713,32	3080,30
713,76	3082,05
714,21	3077,10
714,65	3074,42
715,09	3077,40
715,53	3076,02
715,97	3073,00
716,42	3078,65
716,86	3075,78
717,30	3075,10
717,74	3072,42
718,18	3086,35
718,63	3073,98
719,07	3077,05
719,51	3083,32
719,95	3080,22
720,39	3074,78
720,84	3075,45
721,28	3069,68
721,72	3071,65
722,16	3070,10
722,60	3067,92
723,04	3077,95
723,49	3082,40
723,93	3068,85
724,37	3070,20
724,81	3074,12
725,25	3073,82
725,69	3072,58
726,14	3074,32
726,58	3069,70
727,02	3075,18
727,46	3072,22
727,90	3066,90
728,34	3066,75
728,78	3074,12
729,23	3065,35
729,67	3075,18
730,11	3066,85
730,55	3067,90
730,99	3073,55
731,43	3073,20
731,87	3086,65
732,31	3067,85
732,76	3078,20
733,20	3078,08
733,64	3070,22
734,08	3078,08
734,52	3069,72
734,96	3077,62
735,40	3066,92
735,84	3074,38
736,28	3073,82
736,72	3072,78
737,16	3072,50
737,61	3067,60
738,05	3076,62
738,49	3074,78
738,93	3069,10
739,37	3077,58
739,81	3077,75
740,25	3072,90
740,69	3088,98
741,13	3067,60
741,57	3076,22
742,01	3078,12
742,45	3074,78
742,89	3071,40
743,33	3069,30
743,77	3071,62
744,21	3065,75
744,65	3078,82
745,09	3074,38
745,53	3066,70
745,98	3073,90
746,42	3075,12
746,86	3073,62
747,30	3072,42
747,74	3066,30
748,18	3069,75
748,62	3069,90
749,06	3078,62
749,50	3075,88
749,94	3073,38
750,38	3078,12
750,82	3080,38
751,26	3065,58
751,70	3067,20
752,14	3065,45
752,58	3075,52
753,02	3068,70
753,45	3070,62
753,89	3074,05
754,33	3088,62
754,77	3071,48
755,21	3071,95
755,65	3065,55
756,09	3067,48
756,53	3070,48
756,97	3071,08
757,41	3082,22
757,85	3068,65
758,29	3070,48
758,73	3065,08
759,17	3069,25
759,61	3064,18
760,05	3070,80
760,49	3072,80
760,93	3077,80
761,37	3069,35
761,80	3077,40
762,24	3071,80
762,68	3070,12
763,12	3069,60
763,56	3069,20
764,00	3065,60
764,44	3069,92
764,88	3070,75
765,32	3071,00
765,76	3073,40
766,20	3075,88
766,63	3067,30
767,07	3064,30
767,51	3069,68
767,95	3072,95
768,39	3069,62
768,83	3062,18
769,27	3067,32
769,71	3074,40
770,14	3066,78
770,58	3065,78
771,02	3067,05
771,46	3068,60
771,90	3069,12
772,34	3069,32
772,78	3073,90
773,21	3068,80
773,65	3081,35
774,09	3065,60
774,53	3070,70
774,97	3066,30
775,41	3063,90
775,84	3072,85
776,28	3072,45
776,72	3070,28
777,16	3062,70
777,60	3068,55
778,04	3067,58
778,47	3061,42
778,91	3067,98
779,35	3063,52
779,79	3070,65
780,23	3071,10
780,66	3064,10
781,10	3068,70
781,54	3068,70
781,98	3071,12
782,42	3071,30
782,85	3068,50
783,29	3070,32
783,73	3087,02
784,17	3079,05
784,61	3069,08
785,04	3074,50
785,48	3070,50
785,92	3063,90
786,36	3070,58
786,79	3065,25
787,23	3068,35
787,67	3072,70
788,11	3073,45
788,54	3070,78
788,98	3066,80
789,42	3067,62
789,86	3065,05
790,29	3073,28
790,73	3072,68
791,17	3075,15
791,60	3064,82
792,04	3066,08
792,48	3069,10
792,92	3065,20
793,35	3067,08
793,79	3065,75
794,23	3067,80
794,67	3065,78
795,10	3067,68
795,54	3075,15
795,98	3066,32
796,41	3070,95
796,85	3064,65
797,29	3094,60
797,72	3075,12
798,16	3069,60
798,60	3071,92
799,03	3068,88
799,47	3063,15
799,91	3071,65
800,34	3068,68
800,78	3069,02
801,22	3064,85
801,65	3062,32
802,09	3069,42
802,53	3075,50
802,96	3068,90
803,40	3065,40
803,84	3077,40
804,27	3072,00
804,71	3065,65
805,15	3070,58
805,58	3068,30
806,02	3066,12
806,46	3074,08
806,89	3077,92
807,33	3071,48
807,76	3071,40
808,20	3067,28
808,64	3068,10
809,07	3079,08
809,51	3081,90
809,95	3077,20
810,38	3076,58
810,82	3082,58
811,25	3066,02
811,69	3070,12
812,13	3065,08
812,56	3070,95
813,00	3067,35
813,43	3064,78
813,87	3063,48
814,30	3070,28
814,74	3074,72
815,18	3090,22
815,61	3068,05
816,05	3067,10
816,48	3072,65
816,92	3081,90
817,35	3075,68
817,79	3068,65
818,23	3074,42
818,66	3071,22
819,10	3067,38
819,53	3065,85
819,97	3068,60
820,40	3064,75
820,84	3071,30
821,27	3067,72
821,71	3076,08
822,14	3067,05
822,58	3069,80
823,01	3074,30
823,45	3066,95
823,88	3070,80
824,32	3065,35
824,75	3068,90
825,19	3064,35
825,63	3077,32
826,06	3064,22
826,50	3069,20
826,93	3070,50
827,37	3063,60
827,80	3068,95
828,23	3065,50
828,67	3069,82
829,10	3069,60
829,54	3061,58
829,97	3067,40
830,41	3058,65
830,84	3068,72
831,28	3071,05
831,71	3075,62
832,15	3064,32
832,58	3070,10
833,02	3069,48
833,45	3065,92
833,89	3077,60
834,32	3065,45
834,75	3082,18
835,19	3074,38
835,62	3071,78
836,06	3061,50
836,49	3067,42
836,93	3067,42
837,36	3072,65
837,79	3071,42
838,23	3064,90
838,66	3065,20
839,10	3072,90
839,53	3065,32
839,97	3069,25
840,40	3067,35
840,83	3073,20
841,27	3061,95
841,70	3067,30
842,14	3071,22
842,57	3065,40
843,00	3077,55
843,44	3081,58
843,87	3070,02
844,31	3072,72
844,74	3060,52
845,17	3063,12
845,61	3063,90
846,04	3064,82
846,47	3070,92
846,91	3068,92
847,34	3071,40
847,77	3066,55
848,21	3062,60
848,64	3071,62
849,08	3068,32
849,51	3073,70
849,94	3064,40
850,38	3064,78
850,81	3068,20
851,24	3063,68
851,68	3064,05
852,11	3064,88
852,54	3070,50
852,98	3072,28
853,41	3071,52
853,84	3066,80
854,28	3072,92
854,71	3064,80
855,14	3069,42
855,57	3075,05
856,01	3065,22
856,44	3064,10
856,87	3070,92
857,31	3062,72
857,74	3071,50
858,17	3061,98
858,61	3063,95
859,04	3073,25
859,47	3076,58
859,90	3066,80
860,34	3070,50
860,77	3067,00
861,20	3061,40
861,63	3073,72
862,07	3058,90
862,50	3062,68
862,93	3065,80
863,37	3065,15
863,80	3067,88
864,23	3070,22
864,66	3063,65
865,10	3066,08
865,53	3071,58
865,96	3063,08
866,39	3065,80
866,82	3071,02
867,26	3063,38
867,69	3067,02
868,12	3066,28
868,55	3059,40
868,99	3065,85
869,42	3059,50
869,85	3069,42
870,28	3060,30
870,71	3067,62
871,15	3066,52
871,58	3064,98
872,01	3068,58
872,44	3067,22
872,87	3074,28
873,31	3079,08
873,74	3061,80
874,17	3066,65
874,60	3069,55
875,03	3064,92
875,47	3067,02
875,90	3071,98
876,33	3065,48
876,76	3074,60
877,19	3067,65
877,62	3064,78
878,06	3063,48
878,49	3072,30
878,92	3059,22
879,35	3069,42
879,78	3066,65
880,21	3065,52
880,64	3066,12
881,08	3065,28
881,51	3070,40
881,94	3065,15
882,37	3078,28
882,80	3060,95
883,23	3063,28
883,66	3064,50
884,09	3067,20
884,53	3072,45
884,96	3066,08
885,39	3066,72
885,82	3067,88
886,25	3065,08
886,68	3063,35
887,11	3068,85
887,54	3065,15
887,97	3070,60
888,40	3070,48
888,84	3065,02
889,27	3063,52
889,70	3076,60
890,13	3061,90
890,56	3065,52
890,99	3063,52
891,42	3064,58
891,85	3086,68
892,28	3058,48
892,71	3070,08
893,14	3063,85
893,57	3070,32
894,00	3069,62
894,43	3059,45
894,86	3063,70
895,29	3065,72
895,73	3060,10
896,16	3065,35
896,59	3068,82
897,02	3062,58
897,45	3069,52
897,88	3064,50
898,31	3062,35
898,74	3068,55
899,17	3069,02
899,60	3062,35
900,03	3059,72
900,46	3063,65
900,89	3066,65
901,32	3069,98
901,75	3063,80
902,18	3062,45
902,61	3062,30
903,04	3068,85
903,47	3068,02
903,90	3064,88
904,33	3078,22
904,76	3076,05
905,19	3063,38
905,62	3063,82
906,05	3076,35
906,48	3060,60
906,91	3068,25
907,34	3062,92
907,76	3065,45
908,19	3060,58
908,62	3074,55
909,05	3066,58
909,48	3070,70
909,91	3066,22
910,34	3066,80
910,77	3069,52
911,20	3073,40
911,63	3064,92
912,06	3060,28
912,49	3068,08
912,92	3067,05
913,35	3066,25
913,78	3061,68
914,21	3065,58
914,63	3068,35
915,06	3062,88
915,49	3067,72
915,92	3068,40
916,35	3064,92
916,78	3059,68
917,21	3061,48
917,64	3063,40
918,07	3063,70
918,50	3070,95
918,92	3063,75
919,35	3071,92
919,78	3063,08
920,21	3068,12
920,64	3061,15
921,07	3065,40
921,50	3066,12
921,93	3068,92
922,35	3069,08
922,78	3065,80
923,21	3074,35
923,64	3068,32
924,07	3063,32
924,50	3060,48
924,92	3059,70
925,35	3065,95
925,78	3074,68
926,21	3068,92
926,64	3061,02
927,07	3068,08
927,49	3061,05
927,92	3068,42
928,35	3078,40
928,78	3063,78
929,21	3067,32
929,64	3060,20
930,06	3079,22
930,49	3065,58
930,92	3059,12
931,35	3070,95
931,78	3063,68
932,20	3067,95
932,63	3070,68
933,06	3062,45
933,49	3064,95
933,92	3058,15
934,34	3075,85
934,77	3073,10
935,20	3080,15
935,63	3064,85
936,05	3070,32
936,48	3070,05
936,91	3067,32
937,34	3066,92
937,76	3059,12
938,19	3063,52
938,62	3062,40
939,05	3067,62
939,47	3062,82
939,90	3069,22
940,33	3063,28
940,76	3062,48
941,18	3066,22
941,61	3060,42
942,04	3065,42
942,47	3070,12
942,89	3075,65
943,32	3062,75
943,75	3068,38
944,17	3060,80
944,60	3061,62
945,03	3068,25
945,46	3060,30
945,88	3057,52
946,31	3066,98
946,74	3061,85
947,16	3065,20
947,59	3064,22
948,02	3063,75
948,44	3066,70
948,87	3072,48
949,30	3061,95
949,72	3065,85
950,15	3067,98
950,58	3057,28
951,00	3060,65
951,43	3060,68
951,86	3080,08
952,28	3071,62
952,71	3061,15
953,14	3063,60
953,56	3065,30
953,99	3059,80
954,42	3069,78
954,84	3063,70
955,27	3075,48
955,70	3056,98
956,12	3061,02
956,55	3063,78
956,98	3060,35
957,40	3064,62
957,83	3068,18
958,25	3059,75
958,68	3067,62
959,11	3084,38
959,53	3059,08
959,96	3068,00
960,38	3066,80
960,81	3063,00
961,24	3060,90
961,66	3063,30
962,09	3056,00
962,51	3063,38
962,94	3068,28
963,37	3067,25
963,79	3068,68
964,22	3069,62
964,64	3063,35
965,07	3067,00
965,49	3064,58
965,92	3065,75
966,35	3062,68
966,77	3061,92
967,20	3069,52
967,62	3064,08
968,05	3061,28
968,47	3068,40
968,90	3060,10
969,32	3060,68
969,75	3069,15
970,17	3091,45
970,60	3068,92
971,03	3063,10
971,45	3067,75
971,88	3061,58
972,30	3062,42
972,73	3067,68
973,15	3061,08
973,58	3064,82
974,00	3058,82
974,43	3061,52
974,85	3060,48
975,28	3064,00
975,70	3062,95
976,13	3068,62
976,55	3065,78
976,98	3059,00
977,40	3061,18
977,83	3059,62
978,25	3064,98
978,68	3059,52
979,10	3069,02
979,53	3065,25
979,95	3063,18
980,37	3063,25
980,80	3061,42
981,22	3069,88
981,65	3069,22
982,07	3060,18
982,50	3068,75
982,92	3069,98
983,35	3064,88
983,77	3064,48
984,20	3062,55
984,62	3062,50
985,04	3062,38
985,47	3067,90
985,89	3067,28
986,32	3058,70
986,74	3054,72
987,17	3062,28
987,59	3068,00
988,01	3061,65
988,44	3061,02
988,86	3064,92
989,29	3063,38
989,71	3064,02
990,13	3064,40
990,56	3064,75
990,98	3064,85
991,41	3060,98
991,83	3067,45
992,25	3063,12
992,68	3065,18
993,10	3074,50
993,53	3061,92
993,95	3061,70
994,37	3063,18
994,80	3062,05
995,22	3063,02
995,64	3071,15
996,07	3067,18
996,49	3066,28
996,91	3064,55
997,34	3056,85
997,76	3056,55
998,18	3056,98
998,61	3072,30
999,03	3069,50
999,45	3062,48
999,88	3064,48
1000,30	3060,15
1000,72	3072,28
1001,15	3065,78
1001,57	3064,25
1001,99	3073,35
1002,42	3060,20
1002,84	3062,95
1003,26	3068,88
1003,69	3063,80
1004,11	3066,15
1004,53	3062,82
1004,96	3067,35
1005,38	3061,22
1005,80	3064,52
1006,22	3068,32
1006,65	3072,70
1007,07	3063,62
1007,49	3058,58
1007,92	3067,70
1008,34	3064,98
1008,76	3061,68
1009,18	3056,90
1009,61	3062,65
1010,03	3064,38
1010,45	3084,50
1010,87	3067,05
1011,30	3067,42
1011,72	3064,75
1012,14	3067,48
1012,56	3068,10
1012,99	3063,12
1013,41	3065,38
1013,83	3067,38
1014,25	3068,02
1014,68	3066,45
1015,10	3060,42
1015,52	3070,70
1015,94	3059,18
1016,37	3068,30
1016,79	3063,05
1017,21	3063,22
1017,63	3058,30
1018,05	3067,20
1018,48	3062,52
1018,90	3061,95
1019,32	3062,45
1019,74	3056,32
1020,16	3081,30
1020,59	3072,18
1021,01	3069,02
1021,43	3062,10
1021,85	3062,88
1022,27	3065,18
1022,69	3064,30
1023,12	3066,42
1023,54	3064,38
1023,96	3084,48
1024,38	3068,90
1024,80	3069,38
1025,22	3068,68
1025,65	3068,88
1026,07	3066,65
1026,49	3069,55
1026,91	3062,90
1027,33	3059,48
1027,75	3077,30
1028,17	3068,50
1028,60	3069,42
1029,02	3065,60
1029,44	3067,18
1029,86	3063,50
1030,28	3079,12
1030,70	3068,08
1031,12	3064,12
1031,54	3070,28
1031,97	3071,92
1032,39	3062,25
1032,81	3065,90
1033,23	3072,25
1033,65	3065,75
1034,07	3072,22
1034,49	3063,00
1034,91	3061,92
1035,33	3067,70
1035,75	3069,90
1036,18	3063,40
1036,60	3077,92
1037,02	3063,02
1037,44	3066,30
1037,86	3070,42
1038,28	3061,20
1038,70	3072,30
1039,12	3073,12
1039,54	3071,72
1039,96	3074,30
1040,38	3078,60
1040,80	3065,20
1041,22	3066,55
1041,64	3070,98
1042,06	3068,00
1042,48	3078,78
1042,90	3077,28
1043,32	3073,02
1043,74	3075,85
1044,17	3067,75
1044,59	3074,32
1045,01	3065,38
1045,43	3068,30
1045,85	3070,00
1046,27	3065,98
1046,69	3074,58
1047,11	3074,80
1047,53	3066,90
1047,95	3074,22
1048,37	3078,68
1048,79	3068,05
1049,21	3080,48
1049,63	3076,82
1050,05	3079,92
1050,47	3073,12
1050,89	3074,88
1051,31	3077,65
1051,72	3077,55
1052,14	3084,70
1052,56	3082,82
1052,98	3073,68
1053,40	3083,12
1053,82	3067,88
1054,24	3078,08
1054,66	3070,18
1055,08	3077,48
1055,50	3073,30
1055,92	3079,48
1056,34	3081,08
1056,76	3090,22
1057,18	3086,28
1057,60	3084,48
1058,02	3078,72
1058,44	3101,25
1058,86	3073,60
1059,28	3081,82
1059,69	3084,08
1060,11	3077,55
1060,53	3077,62
1060,95	3075,92
1061,37	3083,32
1061,79	3079,75
1062,21	3075,58
1062,63	3083,32
1063,05	3088,02
1063,47	3080,32
1063,88	3078,00
1064,30	3075,80
1064,72	3086,98
1065,14	3085,15
1065,56	3078,80
1065,98	3074,62
1066,40	3073,95
1066,82	3082,90
1067,23	3081,02
1067,65	3078,92
1068,07	3080,18
1068,49	3079,85
1068,91	3088,40
1069,33	3081,62
1069,75	3075,00
1070,16	3071,95
1070,58	3086,30
1071,00	3085,50
1071,42	3084,10
1071,84	3079,65
1072,26	3083,78
1072,67	3078,00
1073,09	3075,25
1073,51	3073,82
1073,93	3083,18
1074,35	3076,78
1074,77	3074,12
1075,18	3077,02
1075,60	3079,22
1076,02	3080,95
1076,44	3080,08
1076,86	3075,92
1077,27	3079,48
1077,69	3084,22
1078,11	3075,80
1078,53	3082,88
1078,94	3088,35
1079,36	3070,58
1079,78	3081,12
1080,20	3079,70
1080,62	3081,30
1081,03	3083,05
1081,45	3078,05
1081,87	3077,22
1082,29	3079,65
1082,70	3078,05
1083,12	3077,40
1083,54	3081,98
1083,96	3082,02
1084,37	3084,52
1084,79	3080,05
1085,21	3077,75
1085,63	3087,62
1086,04	3075,10
1086,46	3076,80
1086,88	3083,38
1087,30	3073,88
1087,71	3082,98
1088,13	3365,42
1088,55	3079,00
1088,96	3075,18
1089,38	3079,40
1089,80	3079,98
1090,22	3086,25
1090,63	3078,52
1091,05	3074,35
1091,47	3083,60
1091,88	3075,45
1092,30	3075,08
1092,72	3078,10
1093,13	3077,32
1093,55	3079,32
1093,97	3076,50
1094,38	3080,80
1094,80	3079,68
1095,22	3078,78
1095,63	3076,68
1096,05	3077,50
1096,47	3080,80
1096,88	3073,88
1097,30	3079,08
1097,72	3072,05
1098,13	3083,88
1098,55	3082,92
1098,97	3082,78
1099,38	3077,68
1099,80	3076,62
1100,21	3072,15
1100,63	3077,90
1101,05	3076,48
1101,46	3081,38
1101,88	3072,18
1102,30	3078,40
1102,71	3077,60
1103,13	3079,12
1103,54	3081,78
1103,96	3074,48
1104,38	3087,18
1104,79	3068,32
1105,21	3078,72
1105,62	3075,98
1106,04	3075,88
1106,46	3078,40
1106,87	3070,08
1107,29	3069,90
1107,70	3083,90
1108,12	3072,12
1108,54	3081,55
1108,95	3081,32
1109,37	3080,05
1109,78	3067,38
1110,20	3075,18
1110,61	3071,78
1111,03	3071,78
1111,44	3071,78
1111,86	3071,78
1112,28	3071,78
1112,69	3071,78
1113,11	3071,78
1113,52	3071,78
1113,94	3071,78
1114,35	3071,78
1114,77	3071,78
1115,18	3071,78
1115,60	3071,78
1116,01	3071,78
1116,43	3071,78
1116,84	3071,78
1117,26	3071,78
1117,67	3071,78
1118,09	3071,78
1118,50	3071,78
1118,92	3071,78
>>>>>End Processed Spectral Data<<<<<
