SpectraSuite Data File
++++++++++++++++++++++++++++++++++++
Date: Tue Jul 12 15:21:27 EEST 2011
User: OO Maya
Dark Spectrum Present: No
Reference Spectrum Present: No
Number of Sampled Component Spectra: 1
Spectrometers: MAYP11278
Integration Time (usec): 50000 (MAYP11278)
Spectra Averaged: 40 (MAYP11278)
Boxcar Smoothing: 0 (MAYP11278)
Correct for Electrical Dark: No (MAYP11278)
Strobe/Lamp Enabled: No (MAYP11278)
Correct for Detector Non-linearity: No (MAYP11278)
Correct for Stray Light: No (MAYP11278)
Number of Pixels in Processed Spectrum: 2068
>>>>>Begin Processed Spectral Data<<<<<
200,00	3054,48
200,47	2985,75
200,95	2986,30
201,42	2984,85
201,89	3058,45
202,37	3061,32
202,84	3056,82
203,31	3058,95
203,79	3064,05
204,26	3057,22
204,73	3058,25
205,20	3055,45
205,68	3060,58
206,15	3058,82
206,62	3065,02
207,10	3060,90
207,57	3065,68
208,04	3060,55
208,51	3060,62
208,99	3074,60
209,46	3058,55
209,93	3055,38
210,41	3058,65
210,88	3054,82
211,35	3064,62
211,82	3062,40
212,30	3059,62
212,77	3061,38
213,24	3067,30
213,71	3064,60
214,19	3063,62
214,66	3055,20
215,13	3061,70
215,60	3057,52
216,08	3066,48
216,55	3066,80
217,02	3059,02
217,49	3057,50
217,96	3066,98
218,44	3059,48
218,91	3062,50
219,38	3075,35
219,85	3061,95
220,33	3064,50
220,80	3060,30
221,27	3067,20
221,74	3064,95
222,21	3062,92
222,69	3060,95
223,16	3064,70
223,63	3062,28
224,10	3059,42
224,57	3072,08
225,04	3065,12
225,52	3060,35
225,99	3071,95
226,46	3063,55
226,93	3069,15
227,40	3064,65
227,87	3064,70
228,35	3066,28
228,82	3064,18
229,29	3059,95
229,76	3061,90
230,23	3068,00
230,70	3056,10
231,18	3058,45
231,65	3059,75
232,12	3062,45
232,59	3070,45
233,06	3058,45
233,53	3067,80
234,00	3058,42
234,48	3066,95
234,95	3060,80
235,42	3066,98
235,89	3063,80
236,36	3059,32
236,83	3057,58
237,30	3061,85
237,77	3059,78
238,24	3064,78
238,72	3069,00
239,19	3063,15
239,66	3063,70
240,13	3066,42
240,60	3066,98
241,07	3062,75
241,54	3061,28
242,01	3061,42
242,48	3068,58
242,95	3069,30
243,42	3065,45
243,90	3066,10
244,37	3058,55
244,84	3063,95
245,31	3065,70
245,78	3082,02
246,25	3064,95
246,72	3060,20
247,19	3060,18
247,66	3059,75
248,13	3069,05
248,60	3075,70
249,07	3061,70
249,54	3066,40
250,01	3063,75
250,48	3065,18
250,95	3063,90
251,42	3056,62
251,89	3067,12
252,36	3069,70
252,83	3065,48
253,30	3062,48
253,77	3066,48
254,24	3069,58
254,71	3059,35
255,18	3060,48
255,65	3066,45
256,12	3071,60
256,59	3064,28
257,06	3070,12
257,53	3070,55
258,00	3059,72
258,47	3065,72
258,94	3064,12
259,41	3064,65
259,88	3068,08
260,35	3057,50
260,82	3060,45
261,29	3069,98
261,76	3066,82
262,23	3068,95
262,70	3065,30
263,17	3072,50
263,64	3071,72
264,11	3061,88
264,58	3070,12
265,05	3065,40
265,52	3062,08
265,99	3066,40
266,46	3068,35
266,93	3067,28
267,40	3059,95
267,87	3065,32
268,34	3067,50
268,81	3068,22
269,28	3080,58
269,74	3064,42
270,21	3062,25
270,68	3065,45
271,15	3067,72
271,62	3073,20
272,09	3062,35
272,56	3060,92
273,03	3069,82
273,50	3059,20
273,97	3066,88
274,44	3064,15
274,90	3057,38
275,37	3069,55
275,84	3067,30
276,31	3064,02
276,78	3063,80
277,25	3066,92
277,72	3068,58
278,19	3061,52
278,66	3063,38
279,12	3065,60
279,59	3065,50
280,06	3057,45
280,53	3060,28
281,00	3062,42
281,47	3066,25
281,94	3068,75
282,40	3063,00
282,87	3064,82
283,34	3055,95
283,81	3059,40
284,28	3054,35
284,75	3064,10
285,21	3083,88
285,68	3069,28
286,15	3069,45
286,62	3058,10
287,09	3061,62
287,56	3067,15
288,02	3069,88
288,49	3058,28
288,96	3063,72
289,43	3057,28
289,90	3087,50
290,36	3061,92
290,83	3061,15
291,30	3083,88
291,77	3069,58
292,24	3080,45
292,70	3060,60
293,17	3068,35
293,64	3063,68
294,11	3062,55
294,58	3069,30
295,04	3064,65
295,51	3057,68
295,98	3067,80
296,45	3064,98
296,91	3066,10
297,38	3065,78
297,85	3059,40
298,32	3064,95
298,79	3072,35
299,25	3061,28
299,72	3070,05
300,19	3054,38
300,66	3071,65
301,12	3060,12
301,59	3065,68
302,06	3061,62
302,52	3067,72
302,99	3076,20
303,46	3061,42
303,93	3073,20
304,39	3060,65
304,86	3066,82
305,33	3067,85
305,80	3061,62
306,26	3065,32
306,73	3064,18
307,20	3074,68
307,66	3071,95
308,13	3066,35
308,60	3066,28
309,07	3068,50
309,53	3062,18
310,00	3074,18
310,47	3062,65
310,93	3067,65
311,40	3062,72
311,87	3068,08
312,33	3069,82
312,80	3070,85
313,27	3061,10
313,73	3069,55
314,20	3069,20
314,67	3061,30
315,13	3065,12
315,60	3058,62
316,07	3067,78
316,53	3064,75
317,00	3065,50
317,47	3065,85
317,93	3061,08
318,40	3062,85
318,87	3065,12
319,33	3065,22
319,80	3067,98
320,26	3069,88
320,73	3066,52
321,20	3067,12
321,66	3066,58
322,13	3063,45
322,60	3069,90
323,06	3063,38
323,53	3074,60
323,99	3060,90
324,46	3064,25
324,93	3065,42
325,39	3060,62
325,86	3060,15
326,32	3069,70
326,79	3064,22
327,26	3066,68
327,72	3066,08
328,19	3066,20
328,65	3079,32
329,12	3064,92
329,59	3061,88
330,05	3058,82
330,52	3066,82
330,98	3076,05
331,45	3067,85
331,91	3064,55
332,38	3057,40
332,85	3060,38
333,31	3073,48
333,78	3061,35
334,24	3066,25
334,71	3058,82
335,17	3064,90
335,64	3062,60
336,10	3065,05
336,57	3061,38
337,03	3062,48
337,50	3066,38
337,96	3065,62
338,43	3067,18
338,90	3069,02
339,36	3064,25
339,83	3063,68
340,29	3062,50
340,76	3061,68
341,22	3065,30
341,69	3067,22
342,15	3075,15
342,62	3060,15
343,08	3076,65
343,55	3067,30
344,01	3067,12
344,48	3071,02
344,94	3065,42
345,41	3066,15
345,87	3086,08
346,34	3059,38
346,80	3062,78
347,27	3062,38
347,73	3068,92
348,19	3062,10
348,66	3063,82
349,12	3073,65
349,59	3069,55
350,05	3058,75
350,52	3062,62
350,98	3061,10
351,45	3067,10
351,91	3069,98
352,38	3061,58
352,84	3066,48
353,30	3070,12
353,77	3068,02
354,23	3061,40
354,70	3064,82
355,16	3061,80
355,63	3064,10
356,09	3067,68
356,55	3061,78
357,02	3060,52
357,48	3072,78
357,95	3061,92
358,41	3072,68
358,87	3065,95
359,34	3056,10
359,80	3064,70
360,27	3068,62
360,73	3065,38
361,19	3059,90
361,66	3066,80
362,12	3074,25
362,59	3066,55
363,05	3064,40
363,51	3065,62
363,98	3068,55
364,44	3066,98
364,91	3067,30
365,37	3064,95
365,83	3075,88
366,30	3061,82
366,76	3075,35
367,22	3061,55
367,69	3077,10
368,15	3068,32
368,61	3060,22
369,08	3059,90
369,54	3061,78
370,00	3065,32
370,47	3069,82
370,93	3070,30
371,39	3061,55
371,86	3063,70
372,32	3064,18
372,78	3062,60
373,25	3064,58
373,71	3077,98
374,17	3067,62
374,64	3061,85
375,10	3069,58
375,56	3062,18
376,03	3056,90
376,49	3068,20
376,95	3062,30
377,42	3064,18
377,88	3057,48
378,34	3059,55
378,80	3067,42
379,27	3061,50
379,73	3069,00
380,19	3065,45
380,66	3062,40
381,12	3063,50
381,58	3065,85
382,04	3062,18
382,51	3057,68
382,97	3066,22
383,43	3064,68
383,89	3058,22
384,36	3060,75
384,82	3066,45
385,28	3055,58
385,74	3069,58
386,21	3063,40
386,67	3060,90
387,13	3058,05
387,59	3063,12
388,06	3067,52
388,52	3064,42
388,98	3062,32
389,44	3064,55
389,91	3069,40
390,37	3072,48
390,83	3065,65
391,29	3072,70
391,75	3069,68
392,22	3057,78
392,68	3066,08
393,14	3063,25
393,60	3068,78
394,06	3064,68
394,53	3093,88
394,99	3062,68
395,45	3063,78
395,91	3064,08
396,37	3074,15
396,84	3059,62
397,30	3059,32
397,76	3069,75
398,22	3068,92
398,68	3069,72
399,14	3061,38
399,61	3068,85
400,07	3064,12
400,53	3066,98
400,99	3066,10
401,45	3063,80
401,91	3066,80
402,38	3062,95
402,84	3062,98
403,30	3075,28
403,76	3060,90
404,22	3070,38
404,68	3061,78
405,14	3068,05
405,61	3091,15
406,07	3058,38
406,53	3068,62
406,99	3067,10
407,45	3059,52
407,91	3064,12
408,37	3061,62
408,83	3057,72
409,29	3068,82
409,76	3058,48
410,22	3063,28
410,68	3061,08
411,14	3068,20
411,60	3065,30
412,06	3065,15
412,52	3060,48
412,98	3070,15
413,44	3065,62
413,90	3072,32
414,36	3075,88
414,83	3070,45
415,29	3056,58
415,75	3069,40
416,21	3066,22
416,67	3074,22
417,13	3064,90
417,59	3064,20
418,05	3068,25
418,51	3057,88
418,97	3069,58
419,43	3057,78
419,89	3072,45
420,35	3059,40
420,81	3069,58
421,27	3059,12
421,73	3057,08
422,19	3067,40
422,65	3063,18
423,11	3065,88
423,57	3067,05
424,03	3073,30
424,49	3062,02
424,96	3076,28
425,42	3063,55
425,88	3065,40
426,34	3075,82
426,80	3065,00
427,26	3064,58
427,72	3065,88
428,18	3063,65
428,64	3067,38
429,10	3060,25
429,56	3068,30
430,02	3060,35
430,47	3066,70
430,93	3059,88
431,39	3066,30
431,85	3060,62
432,31	3066,20
432,77	3066,08
433,23	3067,88
433,69	3062,22
434,15	3068,45
434,61	3061,90
435,07	3071,22
435,53	3062,15
435,99	3070,15
436,45	3067,35
436,91	3069,75
437,37	3059,50
437,83	3067,78
438,29	3067,92
438,75	3062,82
439,21	3066,85
439,67	3081,80
440,12	3059,02
440,58	3063,58
441,04	3072,20
441,50	3072,65
441,96	3064,55
442,42	3063,58
442,88	3066,60
443,34	3061,95
443,80	3068,15
444,26	3059,40
444,72	3066,38
445,17	3062,80
445,63	3056,12
446,09	3068,48
446,55	3066,80
447,01	3064,38
447,47	3061,38
447,93	3062,85
448,39	3087,70
448,85	3066,62
449,30	3068,50
449,76	3070,95
450,22	3060,80
450,68	3063,52
451,14	3076,08
451,60	3058,40
452,06	3064,05
452,51	3066,20
452,97	3059,48
453,43	3075,15
453,89	3065,45
454,35	3065,15
454,81	3064,35
455,26	3064,15
455,72	3061,42
456,18	3063,78
456,64	3060,32
457,10	3061,52
457,56	3068,32
458,01	3066,20
458,47	3063,22
458,93	3057,15
459,39	3061,62
459,85	3061,20
460,30	3065,32
460,76	3068,48
461,22	3060,90
461,68	3070,22
462,14	3063,60
462,59	3063,40
463,05	3065,60
463,51	3065,92
463,97	3062,58
464,43	3064,28
464,88	3067,15
465,34	3059,65
465,80	3071,20
466,26	3066,50
466,71	3064,08
467,17	3057,05
467,63	3064,52
468,09	3062,92
468,54	3064,28
469,00	3060,25
469,46	3058,08
469,92	3071,90
470,37	3068,02
470,83	3060,12
471,29	3058,90
471,75	3071,72
472,20	3061,42
472,66	3065,50
473,12	3065,35
473,58	3058,00
474,03	3062,15
474,49	3071,05
474,95	3063,72
475,40	3067,62
475,86	3067,08
476,32	3062,08
476,78	3066,52
477,23	3067,75
477,69	3062,90
478,15	3060,38
478,60	3068,60
479,06	3064,50
479,52	3060,90
479,97	3063,22
480,43	3058,90
480,89	3060,82
481,34	3062,30
481,80	3071,02
482,26	3066,15
482,71	3061,28
483,17	3063,10
483,63	3058,18
484,08	3067,40
484,54	3066,58
485,00	3066,88
485,45	3063,40
485,91	3063,50
486,37	3071,60
486,82	3066,75
487,28	3069,25
487,74	3060,38
488,19	3071,85
488,65	3068,00
489,10	3063,55
489,56	3060,62
490,02	3065,20
490,47	3063,40
490,93	3059,50
491,39	3065,15
491,84	3056,00
492,30	3061,88
492,75	3071,72
493,21	3066,22
493,67	3064,38
494,12	3058,52
494,58	3063,60
495,03	3055,72
495,49	3063,85
495,95	3058,25
496,40	3058,65
496,86	3062,48
497,31	3067,15
497,77	3063,18
498,23	3068,00
498,68	3058,50
499,14	3063,35
499,59	3058,02
500,05	3060,55
500,50	3055,55
500,96	3068,50
501,41	3066,58
501,87	3065,40
502,33	3059,22
502,78	3062,85
503,24	3061,68
503,69	3060,32
504,15	3064,80
504,60	3061,10
505,06	3063,12
505,51	3074,02
505,97	3068,20
506,42	3060,30
506,88	3066,05
507,33	3061,82
507,79	3078,20
508,24	3063,65
508,70	3060,82
509,15	3065,02
509,61	3061,90
510,06	3066,35
510,52	3064,22
510,97	3063,48
511,43	3061,28
511,88	3065,82
512,34	3061,48
512,79	3067,70
513,25	3064,65
513,70	3060,45
514,16	3065,02
514,61	3068,48
515,07	3062,35
515,52	3066,55
515,98	3066,18
516,43	3060,18
516,89	3060,05
517,34	3056,70
517,80	3061,85
518,25	3063,78
518,70	3058,88
519,16	3068,52
519,61	3070,28
520,07	3058,50
520,52	3055,58
520,98	3059,58
521,43	3066,02
521,89	3052,95
522,34	3068,42
522,79	3070,82
523,25	3056,70
523,70	3062,90
524,16	3069,20
524,61	3069,95
525,06	3080,35
525,52	3066,12
525,97	3064,20
526,43	3086,12
526,88	3062,55
527,33	3059,75
527,79	3057,48
528,24	3061,30
528,70	3065,42
529,15	3065,90
529,60	3067,30
530,06	3065,72
530,51	3057,72
530,97	3073,98
531,42	3068,50
531,87	3061,92
532,33	3071,22
532,78	3067,42
533,23	3070,85
533,69	3068,22
534,14	3067,92
534,59	3063,50
535,05	3062,12
535,50	3062,60
535,96	3069,45
536,41	3066,20
536,86	3063,98
537,32	3058,60
537,77	3065,78
538,22	3069,45
538,68	3057,98
539,13	3071,48
539,58	3063,30
540,03	3062,08
540,49	3064,52
540,94	3067,12
541,39	3064,22
541,85	3060,25
542,30	3063,42
542,75	3062,35
543,21	3063,80
543,66	3059,32
544,11	3067,35
544,57	3058,25
545,02	3067,95
545,47	3063,28
545,92	3064,60
546,38	3074,08
546,83	3067,25
547,28	3094,15
547,73	3058,88
548,19	3072,72
548,64	3065,18
549,09	3056,25
549,55	3067,32
550,00	3064,25
550,45	3060,92
550,90	3079,22
551,36	3058,48
551,81	3074,38
552,26	3070,38
552,71	3061,95
553,17	3062,98
553,62	3069,12
554,07	3063,45
554,52	3064,58
554,97	3066,25
555,43	3065,12
555,88	3063,80
556,33	3063,32
556,78	3060,82
557,24	3075,82
557,69	3063,08
558,14	3059,60
558,59	3064,50
559,04	3063,72
559,50	3074,02
559,95	3065,95
560,40	3059,35
560,85	3066,18
561,30	3062,32
561,76	3059,80
562,21	3066,00
562,66	3066,02
563,11	3072,18
563,56	3063,42
564,01	3071,88
564,47	3057,15
564,92	3064,90
565,37	3075,48
565,82	3062,25
566,27	3063,08
566,72	3059,90
567,18	3060,55
567,63	3060,25
568,08	3064,18
568,53	3063,02
568,98	3062,92
569,43	3063,82
569,88	3059,75
570,34	3065,32
570,79	3070,95
571,24	3058,48
571,69	3066,02
572,14	3061,15
572,59	3064,35
573,04	3064,85
573,49	3069,05
573,94	3062,42
574,40	3061,02
574,85	3065,88
575,30	3069,70
575,75	3062,38
576,20	3063,80
576,65	3068,50
577,10	3062,52
577,55	3062,22
578,00	3067,68
578,45	3068,38
578,91	3061,30
579,36	3066,68
579,81	3068,92
580,26	3060,52
580,71	3061,68
581,16	3066,58
581,61	3072,22
582,06	3067,88
582,51	3058,32
582,96	3066,18
583,41	3056,12
583,86	3068,95
584,31	3059,70
584,76	3065,28
585,21	3059,42
585,66	3071,58
586,11	3064,98
586,56	3061,38
587,01	3066,72
587,46	3065,75
587,92	3062,10
588,37	3063,42
588,82	3064,08
589,27	3065,70
589,72	3057,00
590,17	3063,92
590,62	3065,50
591,07	3062,02
591,52	3066,82
591,97	3061,80
592,42	3077,82
592,87	3061,90
593,32	3063,52
593,77	3063,70
594,22	3063,20
594,67	3069,48
595,12	3058,10
595,56	3065,05
596,01	3062,50
596,46	3059,80
596,91	3066,22
597,36	3067,85
597,81	3061,32
598,26	3059,48
598,71	3070,85
599,16	3061,20
599,61	3066,00
600,06	3063,55
600,51	3067,00
600,96	3062,65
601,41	3062,70
601,86	3072,28
602,31	3062,75
602,76	3062,02
603,21	3070,75
603,66	3069,42
604,11	3072,68
604,55	3062,95
605,00	3059,15
605,45	3063,95
605,90	3070,95
606,35	3060,32
606,80	3067,52
607,25	3071,98
607,70	3065,72
608,15	3070,60
608,60	3059,02
609,04	3082,18
609,49	3059,90
609,94	3066,70
610,39	3057,28
610,84	3057,22
611,29	3066,70
611,74	3063,35
612,19	3066,68
612,64	3065,40
613,08	3056,42
613,53	3061,82
613,98	3064,32
614,43	3066,02
614,88	3068,62
615,33	3064,32
615,78	3080,38
616,22	3069,50
616,67	3065,38
617,12	3062,72
617,57	3064,65
618,02	3059,25
618,47	3076,08
618,91	3068,35
619,36	3066,65
619,81	3084,18
620,26	3061,70
620,71	3060,88
621,16	3057,22
621,60	3058,42
622,05	3064,20
622,50	3064,92
622,95	3059,30
623,40	3064,95
623,84	3067,55
624,29	3068,92
624,74	3059,62
625,19	3063,95
625,64	3064,98
626,08	3068,95
626,53	3062,62
626,98	3071,98
627,43	3071,02
627,87	3065,52
628,32	3070,70
628,77	3074,72
629,22	3071,42
629,66	3062,20
630,11	3062,50
630,56	3069,95
631,01	3061,58
631,46	3061,50
631,90	3067,35
632,35	3061,38
632,80	3064,82
633,25	3066,32
633,69	3063,35
634,14	3068,45
634,59	3068,95
635,03	3054,95
635,48	3061,75
635,93	3070,12
636,38	3063,22
636,82	3069,05
637,27	3065,18
637,72	3070,75
638,16	3067,58
638,61	3070,90
639,06	3059,65
639,51	3062,60
639,95	3060,05
640,40	3060,98
640,85	3060,42
641,29	3063,28
641,74	3059,75
642,19	3060,90
642,63	3064,25
643,08	3063,55
643,53	3063,28
643,97	3067,88
644,42	3069,70
644,87	3062,98
645,31	3065,95
645,76	3062,90
646,21	3058,50
646,65	3067,18
647,10	3070,90
647,55	3061,10
647,99	3060,90
648,44	3062,35
648,89	3057,28
649,33	3062,92
649,78	3067,72
650,23	3063,20
650,67	3058,42
651,12	3066,15
651,56	3058,28
652,01	3066,48
652,46	3066,00
652,90	3067,42
653,35	3068,50
653,80	3065,98
654,24	3063,58
654,69	3060,28
655,13	3070,85
655,58	3066,72
656,03	3088,25
656,47	3058,90
656,92	3059,50
657,36	3061,22
657,81	3064,62
658,26	3058,48
658,70	3064,35
659,15	3062,15
659,59	3063,52
660,04	3065,20
660,48	3064,30
660,93	3061,05
661,38	3058,35
661,82	3068,98
662,27	3058,80
662,71	3062,88
663,16	3066,50
663,60	3067,15
664,05	3061,70
664,49	3064,78
664,94	3059,45
665,38	3088,80
665,83	3059,58
666,28	3069,95
666,72	3060,30
667,17	3058,92
667,61	3061,45
668,06	3059,15
668,50	3055,02
668,95	3065,68
669,39	3059,40
669,84	3061,52
670,28	3062,65
670,73	3058,20
671,17	3063,35
671,62	3059,10
672,06	3064,88
672,51	3065,32
672,95	3077,50
673,40	3070,28
673,84	3060,10
674,29	3064,40
674,73	3057,15
675,18	3075,80
675,62	3053,00
676,07	3057,32
676,51	3068,80
676,95	3063,68
677,40	3072,35
677,84	3079,02
678,29	3063,25
678,73	3063,00
679,18	3071,08
679,62	3083,02
680,07	3064,28
680,51	3066,75
680,96	3056,42
681,40	3057,30
681,84	3061,85
682,29	3061,02
682,73	3063,10
683,18	3061,12
683,62	3078,00
684,07	3060,28
684,51	3061,42
684,95	3065,95
685,40	3058,68
685,84	3065,10
686,29	3063,10
686,73	3054,00
687,17	3053,72
687,62	3061,98
688,06	3064,00
688,51	3069,55
688,95	3064,95
689,39	3064,60
689,84	3071,95
690,28	3065,32
690,73	3063,82
691,17	3067,02
691,61	3061,30
692,06	3058,48
692,50	3062,78
692,94	3059,38
693,39	3062,25
693,83	3059,42
694,27	3078,58
694,72	3065,82
695,16	3056,40
695,60	3061,62
696,05	3062,02
696,49	3054,58
696,94	3061,60
697,38	3055,75
697,82	3060,68
698,27	3062,08
698,71	3065,60
699,15	3065,38
699,59	3063,38
700,04	3063,50
700,48	3090,05
700,92	3064,10
701,37	3062,20
701,81	3071,98
702,25	3061,12
702,70	3059,75
703,14	3065,55
703,58	3058,50
704,03	3067,22
704,47	3067,85
704,91	3057,72
705,35	3060,75
705,80	3067,55
706,24	3067,05
706,68	3083,98
707,13	3057,52
707,57	3070,52
708,01	3059,68
708,45	3060,92
708,90	3064,05
709,34	3061,50
709,78	3059,92
710,22	3070,65
710,67	3066,32
711,11	3068,48
711,55	3057,40
711,99	3065,05
712,44	3063,75
712,88	3063,00
713,32	3064,38
713,76	3069,05
714,21	3064,32
714,65	3059,42
715,09	3063,12
715,53	3064,05
715,97	3059,35
716,42	3065,05
716,86	3064,52
717,30	3063,12
717,74	3056,75
718,18	3074,02
718,63	3061,70
719,07	3065,10
719,51	3072,25
719,95	3066,05
720,39	3061,60
720,84	3063,95
721,28	3059,45
721,72	3062,90
722,16	3058,35
722,60	3056,95
723,04	3064,95
723,49	3072,88
723,93	3056,05
724,37	3058,18
724,81	3060,92
725,25	3061,90
725,69	3059,98
726,14	3063,88
726,58	3057,92
727,02	3064,75
727,46	3060,75
727,90	3055,72
728,34	3055,70
728,78	3063,18
729,23	3055,45
729,67	3066,15
730,11	3054,08
730,55	3063,08
730,99	3060,92
731,43	3060,78
731,87	3074,22
732,31	3058,20
732,76	3070,45
733,20	3066,28
733,64	3060,08
734,08	3072,42
734,52	3057,92
734,96	3069,98
735,40	3057,35
735,84	3064,20
736,28	3065,30
736,72	3063,32
737,16	3063,40
737,61	3058,15
738,05	3066,62
738,49	3067,80
738,93	3059,60
739,37	3067,58
739,81	3065,12
740,25	3063,65
740,69	3077,95
741,13	3058,18
741,57	3067,18
742,01	3069,48
742,45	3066,38
742,89	3061,95
743,33	3063,75
743,77	3062,62
744,21	3056,75
744,65	3067,80
745,09	3065,08
745,53	3056,62
745,98	3065,65
746,42	3066,30
746,86	3060,38
747,30	3062,85
747,74	3058,08
748,18	3056,98
748,62	3063,05
749,06	3071,02
749,50	3067,42
749,94	3065,12
750,38	3066,78
750,82	3073,02
751,26	3054,70
751,70	3057,80
752,14	3057,95
752,58	3064,05
753,02	3060,98
753,45	3060,12
753,89	3064,65
754,33	3078,68
754,77	3063,28
755,21	3062,20
755,65	3056,78
756,09	3060,25
756,53	3059,08
756,97	3062,00
757,41	3075,70
757,85	3058,30
758,29	3059,92
758,73	3057,65
759,17	3058,48
759,61	3057,95
760,05	3061,08
760,49	3061,88
760,93	3071,15
761,37	3060,18
761,80	3070,85
762,24	3061,82
762,68	3061,65
763,12	3061,20
763,56	3061,68
764,00	3057,72
764,44	3058,08
764,88	3064,62
765,32	3061,50
765,76	3065,60
766,20	3069,12
766,63	3062,35
767,07	3056,18
767,51	3061,38
767,95	3067,40
768,39	3060,60
768,83	3057,18
769,27	3060,22
769,71	3063,10
770,14	3058,08
770,58	3056,08
771,02	3059,92
771,46	3063,30
771,90	3063,30
772,34	3064,68
772,78	3067,50
773,21	3062,52
773,65	3072,50
774,09	3058,35
774,53	3064,05
774,97	3060,22
775,41	3055,75
775,84	3067,68
776,28	3064,82
776,72	3064,78
777,16	3055,28
777,60	3060,48
778,04	3060,68
778,47	3053,22
778,91	3060,72
779,35	3056,92
779,79	3063,88
780,23	3063,45
780,66	3056,10
781,10	3060,42
781,54	3061,22
781,98	3066,08
782,42	3063,60
782,85	3061,05
783,29	3062,40
783,73	3076,82
784,17	3071,08
784,61	3062,42
785,04	3068,22
785,48	3065,25
785,92	3058,02
786,36	3063,80
786,79	3056,62
787,23	3061,30
787,67	3065,50
788,11	3068,02
788,54	3061,12
788,98	3061,28
789,42	3061,30
789,86	3058,42
790,29	3068,80
790,73	3067,20
791,17	3068,25
791,60	3058,35
792,04	3056,32
792,48	3065,78
792,92	3058,40
793,35	3061,20
793,79	3059,12
794,23	3063,98
794,67	3058,78
795,10	3057,90
795,54	3065,85
795,98	3060,88
796,41	3063,48
796,85	3059,20
797,29	3087,72
797,72	3069,02
798,16	3062,90
798,60	3065,72
799,03	3063,08
799,47	3058,18
799,91	3064,35
800,34	3061,00
800,78	3063,68
801,22	3057,08
801,65	3056,80
802,09	3060,88
802,53	3069,15
802,96	3065,62
803,40	3056,52
803,84	3070,35
804,27	3064,48
804,71	3059,85
805,15	3063,70
805,58	3061,45
806,02	3062,35
806,46	3067,65
806,89	3072,05
807,33	3063,95
807,76	3064,75
808,20	3061,50
808,64	3060,50
809,07	3072,95
809,51	3075,82
809,95	3073,22
810,38	3069,15
810,82	3076,70
811,25	3060,72
811,69	3062,78
812,13	3059,55
812,56	3065,28
813,00	3061,20
813,43	3058,38
813,87	3057,82
814,30	3062,92
814,74	3069,22
815,18	3083,48
815,61	3058,95
816,05	3057,32
816,48	3065,70
816,92	3074,50
817,35	3066,78
817,79	3065,70
818,23	3069,28
818,66	3066,32
819,10	3064,20
819,53	3059,38
819,97	3058,90
820,40	3058,80
820,84	3065,58
821,27	3063,80
821,71	3069,62
822,14	3059,70
822,58	3064,68
823,01	3069,75
823,45	3060,78
823,88	3064,22
824,32	3061,65
824,75	3063,65
825,19	3058,88
825,63	3072,60
826,06	3059,28
826,50	3063,75
826,93	3062,70
827,37	3058,65
827,80	3063,55
828,23	3062,45
828,67	3064,70
829,10	3064,35
829,54	3057,28
829,97	3061,72
830,41	3052,58
830,84	3061,85
831,28	3062,90
831,71	3069,08
832,15	3059,38
832,58	3068,05
833,02	3066,22
833,45	3059,70
833,89	3073,42
834,32	3061,25
834,75	3075,45
835,19	3067,55
835,62	3069,12
836,06	3055,10
836,49	3062,60
836,93	3060,78
837,36	3067,18
837,79	3065,78
838,23	3063,18
838,66	3059,52
839,10	3067,98
839,53	3062,32
839,97	3064,92
840,40	3061,50
840,83	3067,15
841,27	3057,45
841,70	3061,02
842,14	3066,82
842,57	3061,68
843,00	3069,40
843,44	3077,15
843,87	3063,95
844,31	3068,60
844,74	3052,70
845,17	3059,05
845,61	3058,62
846,04	3059,58
846,47	3066,35
846,91	3062,70
847,34	3067,72
847,77	3062,28
848,21	3059,45
848,64	3062,68
849,08	3061,10
849,51	3066,50
849,94	3059,55
850,38	3059,78
850,81	3061,25
851,24	3059,55
851,68	3060,82
852,11	3059,55
852,54	3065,12
852,98	3069,42
853,41	3067,90
853,84	3061,38
854,28	3070,68
854,71	3058,82
855,14	3064,20
855,57	3067,12
856,01	3060,42
856,44	3061,05
856,87	3066,75
857,31	3057,98
857,74	3068,82
858,17	3056,20
858,61	3060,12
859,04	3068,82
859,47	3069,42
859,90	3061,75
860,34	3066,52
860,77	3063,50
861,20	3056,92
861,63	3069,70
862,07	3056,42
862,50	3058,22
862,93	3061,68
863,37	3061,95
863,80	3063,40
864,23	3066,00
864,66	3060,05
865,10	3059,02
865,53	3065,80
865,96	3057,52
866,39	3063,68
866,82	3066,65
867,26	3056,50
867,69	3063,60
868,12	3062,18
868,55	3054,58
868,99	3061,20
869,42	3054,60
869,85	3065,68
870,28	3056,20
870,71	3063,45
871,15	3062,12
871,58	3058,68
872,01	3066,72
872,44	3063,42
872,87	3070,48
873,31	3077,30
873,74	3057,80
874,17	3062,28
874,60	3063,70
875,03	3059,48
875,47	3061,85
875,90	3063,90
876,33	3059,15
876,76	3068,92
877,19	3063,62
877,62	3060,98
878,06	3058,92
878,49	3069,52
878,92	3054,22
879,35	3064,62
879,78	3061,68
880,21	3063,62
880,64	3062,30
881,08	3058,72
881,51	3064,60
881,94	3060,92
882,37	3072,70
882,80	3057,25
883,23	3058,25
883,66	3061,40
884,09	3062,82
884,53	3065,68
884,96	3062,40
885,39	3061,55
885,82	3060,45
886,25	3061,28
886,68	3057,22
887,11	3067,78
887,54	3061,92
887,97	3064,95
888,40	3066,18
888,84	3060,48
889,27	3058,82
889,70	3071,05
890,13	3054,90
890,56	3059,38
890,99	3064,18
891,42	3059,35
891,85	3082,38
892,28	3057,88
892,71	3068,52
893,14	3059,68
893,57	3065,38
894,00	3064,88
894,43	3056,70
894,86	3058,68
895,29	3060,52
895,73	3057,98
896,16	3060,60
896,59	3065,20
897,02	3059,45
897,45	3066,10
897,88	3060,82
898,31	3058,22
898,74	3062,92
899,17	3066,62
899,60	3058,48
900,03	3058,12
900,46	3057,45
900,89	3064,08
901,32	3066,68
901,75	3059,75
902,18	3059,52
902,61	3058,90
903,04	3066,32
903,47	3064,58
903,90	3059,30
904,33	3074,48
904,76	3073,22
905,19	3057,82
905,62	3060,52
906,05	3072,18
906,48	3056,92
906,91	3062,82
907,34	3058,58
907,76	3062,98
908,19	3054,65
908,62	3068,62
909,05	3061,18
909,48	3068,65
909,91	3065,90
910,34	3059,75
910,77	3064,62
911,20	3069,02
911,63	3059,30
912,06	3056,88
912,49	3064,72
912,92	3063,75
913,35	3058,75
913,78	3059,80
914,21	3060,78
914,63	3062,60
915,06	3060,40
915,49	3063,62
915,92	3063,08
916,35	3060,88
916,78	3054,02
917,21	3058,42
917,64	3058,92
918,07	3058,68
918,50	3068,42
918,92	3060,82
919,35	3069,68
919,78	3059,55
920,21	3067,05
920,64	3057,68
921,07	3062,58
921,50	3062,00
921,93	3063,28
922,35	3068,75
922,78	3060,35
923,21	3070,68
923,64	3063,70
924,07	3059,80
924,50	3056,35
924,92	3057,68
925,35	3064,05
925,78	3070,05
926,21	3064,95
926,64	3055,60
927,07	3064,30
927,49	3057,10
927,92	3063,38
928,35	3072,45
928,78	3060,42
929,21	3066,18
929,64	3055,58
930,06	3074,42
930,49	3063,85
930,92	3057,00
931,35	3066,40
931,78	3059,85
932,20	3063,85
932,63	3066,20
933,06	3059,95
933,49	3066,08
933,92	3054,28
934,34	3072,28
934,77	3066,58
935,20	3077,92
935,63	3060,50
936,05	3069,70
936,48	3067,72
936,91	3066,25
937,34	3065,32
937,76	3056,88
938,19	3060,38
938,62	3058,45
939,05	3064,40
939,47	3058,10
939,90	3064,20
940,33	3057,58
940,76	3062,32
941,18	3065,98
941,61	3058,45
942,04	3062,15
942,47	3068,78
942,89	3076,10
943,32	3059,15
943,75	3068,65
944,17	3058,65
944,60	3061,15
945,03	3069,08
945,46	3057,62
945,88	3056,20
946,31	3066,28
946,74	3059,68
947,16	3065,72
947,59	3061,92
948,02	3063,30
948,44	3063,75
948,87	3069,15
949,30	3059,52
949,72	3060,00
950,15	3064,72
950,58	3055,02
951,00	3056,75
951,43	3058,18
951,86	3078,02
952,28	3069,00
952,71	3060,30
953,14	3059,00
953,56	3065,45
953,99	3057,72
954,42	3068,95
954,84	3062,62
955,27	3073,18
955,70	3056,02
956,12	3059,15
956,55	3060,60
956,98	3061,58
957,40	3059,85
957,83	3066,15
958,25	3054,68
958,68	3064,90
959,11	3081,00
959,53	3057,50
959,96	3064,75
960,38	3063,48
960,81	3060,38
961,24	3057,72
961,66	3059,50
962,09	3052,10
962,51	3059,92
962,94	3066,85
963,37	3063,32
963,79	3067,42
964,22	3065,08
964,64	3059,62
965,07	3065,10
965,49	3062,18
965,92	3062,78
966,35	3060,38
966,77	3059,05
967,20	3069,20
967,62	3059,52
968,05	3060,95
968,47	3064,32
968,90	3058,45
969,32	3059,28
969,75	3071,12
970,17	3089,02
970,60	3065,60
971,03	3060,82
971,45	3064,08
971,88	3058,35
972,30	3060,45
972,73	3064,80
973,15	3057,68
973,58	3064,25
974,00	3055,30
974,43	3058,88
974,85	3061,45
975,28	3064,65
975,70	3061,32
976,13	3065,62
976,55	3062,70
976,98	3059,98
977,40	3059,12
977,83	3058,45
978,25	3062,60
978,68	3057,35
979,10	3066,50
979,53	3062,48
979,95	3060,40
980,37	3058,80
980,80	3059,10
981,22	3066,98
981,65	3067,18
982,07	3059,42
982,50	3062,90
982,92	3064,65
983,35	3060,68
983,77	3058,98
984,20	3060,48
984,62	3060,75
985,04	3059,02
985,47	3066,10
985,89	3065,38
986,32	3056,35
986,74	3052,28
987,17	3059,95
987,59	3064,82
988,01	3058,85
988,44	3057,75
988,86	3061,78
989,29	3063,22
989,71	3061,82
990,13	3060,48
990,56	3061,32
990,98	3062,70
991,41	3061,90
991,83	3062,92
992,25	3059,60
992,68	3063,55
993,10	3071,25
993,53	3058,75
993,95	3056,70
994,37	3061,30
994,80	3059,55
995,22	3059,70
995,64	3063,30
996,07	3066,28
996,49	3059,85
996,91	3062,20
997,34	3055,85
997,76	3057,85
998,18	3052,62
998,61	3070,12
999,03	3066,65
999,45	3058,38
999,88	3062,42
1000,30	3056,75
1000,72	3069,65
1001,15	3064,02
1001,57	3062,72
1001,99	3071,88
1002,42	3058,02
1002,84	3061,25
1003,26	3062,50
1003,69	3060,20
1004,11	3062,52
1004,53	3060,85
1004,96	3065,30
1005,38	3056,70
1005,80	3065,42
1006,22	3064,52
1006,65	3068,75
1007,07	3061,88
1007,49	3057,68
1007,92	3067,18
1008,34	3060,22
1008,76	3058,00
1009,18	3055,88
1009,61	3061,22
1010,03	3059,25
1010,45	3083,95
1010,87	3069,68
1011,30	3066,92
1011,72	3064,98
1012,14	3064,18
1012,56	3067,32
1012,99	3061,52
1013,41	3064,05
1013,83	3065,42
1014,25	3064,82
1014,68	3063,20
1015,10	3056,78
1015,52	3068,15
1015,94	3054,60
1016,37	3068,12
1016,79	3059,18
1017,21	3062,68
1017,63	3056,30
1018,05	3064,22
1018,48	3059,98
1018,90	3059,58
1019,32	3061,42
1019,74	3053,28
1020,16	3078,12
1020,59	3068,70
1021,01	3066,42
1021,43	3060,22
1021,85	3061,05
1022,27	3062,12
1022,69	3065,65
1023,12	3067,20
1023,54	3062,92
1023,96	3083,05
1024,38	3069,22
1024,80	3068,12
1025,22	3064,62
1025,65	3064,82
1026,07	3065,38
1026,49	3066,78
1026,91	3060,98
1027,33	3059,05
1027,75	3075,68
1028,17	3067,62
1028,60	3064,75
1029,02	3062,22
1029,44	3064,55
1029,86	3059,70
1030,28	3076,20
1030,70	3061,55
1031,12	3061,00
1031,54	3065,00
1031,97	3067,78
1032,39	3057,82
1032,81	3063,35
1033,23	3065,60
1033,65	3064,35
1034,07	3066,10
1034,49	3058,05
1034,91	3059,15
1035,33	3064,15
1035,75	3064,90
1036,18	3060,85
1036,60	3071,40
1037,02	3059,42
1037,44	3059,15
1037,86	3063,50
1038,28	3056,48
1038,70	3067,20
1039,12	3067,48
1039,54	3067,20
1039,96	3071,18
1040,38	3070,80
1040,80	3060,18
1041,22	3062,30
1041,64	3062,05
1042,06	3061,68
1042,48	3072,12
1042,90	3069,65
1043,32	3063,92
1043,74	3067,65
1044,17	3061,22
1044,59	3069,38
1045,01	3058,55
1045,43	3061,20
1045,85	3061,32
1046,27	3058,40
1046,69	3063,10
1047,11	3066,48
1047,53	3059,78
1047,95	3064,15
1048,37	3066,10
1048,79	3059,48
1049,21	3068,85
1049,63	3068,88
1050,05	3066,45
1050,47	3060,40
1050,89	3061,92
1051,31	3066,68
1051,72	3065,98
1052,14	3070,95
1052,56	3069,00
1052,98	3064,10
1053,40	3068,65
1053,82	3052,52
1054,24	3060,98
1054,66	3055,42
1055,08	3061,95
1055,50	3059,50
1055,92	3064,35
1056,34	3066,28
1056,76	3070,90
1057,18	3068,62
1057,60	3069,78
1058,02	3064,55
1058,44	3087,52
1058,86	3060,12
1059,28	3065,25
1059,69	3068,95
1060,11	3062,60
1060,53	3060,98
1060,95	3059,90
1061,37	3066,45
1061,79	3064,05
1062,21	3060,70
1062,63	3065,40
1063,05	3072,72
1063,47	3063,92
1063,88	3061,82
1064,30	3060,08
1064,72	3070,08
1065,14	3067,30
1065,56	3059,75
1065,98	3057,90
1066,40	3054,95
1066,82	3068,60
1067,23	3063,45
1067,65	3063,45
1068,07	3064,62
1068,49	3060,00
1068,91	3070,62
1069,33	3065,58
1069,75	3059,22
1070,16	3057,48
1070,58	3068,18
1071,00	3066,62
1071,42	3068,02
1071,84	3060,95
1072,26	3065,45
1072,67	3059,52
1073,09	3060,45
1073,51	3056,78
1073,93	3066,70
1074,35	3061,82
1074,77	3055,85
1075,18	3061,72
1075,60	3061,15
1076,02	3063,80
1076,44	3059,20
1076,86	3059,45
1077,27	3065,22
1077,69	3067,62
1078,11	3060,42
1078,53	3066,65
1078,94	3072,20
1079,36	3053,52
1079,78	3063,80
1080,20	3061,05
1080,62	3062,32
1081,03	3064,42
1081,45	3062,65
1081,87	3059,85
1082,29	3067,08
1082,70	3061,90
1083,12	3060,00
1083,54	3063,98
1083,96	3063,12
1084,37	3067,95
1084,79	3061,85
1085,21	3060,95
1085,63	3070,05
1086,04	3057,82
1086,46	3059,35
1086,88	3065,80
1087,30	3056,42
1087,71	3065,70
1088,13	3356,80
1088,55	3062,10
1088,96	3058,50
1089,38	3061,68
1089,80	3060,28
1090,22	3068,62
1090,63	3062,28
1091,05	3058,30
1091,47	3064,50
1091,88	3062,42
1092,30	3058,62
1092,72	3060,72
1093,13	3061,65
1093,55	3062,40
1093,97	3059,80
1094,38	3062,08
1094,80	3061,68
1095,22	3062,28
1095,63	3062,22
1096,05	3061,80
1096,47	3065,50
1096,88	3056,95
1097,30	3064,42
1097,72	3057,18
1098,13	3065,30
1098,55	3065,95
1098,97	3068,65
1099,38	3061,05
1099,80	3059,85
1100,21	3057,32
1100,63	3058,12
1101,05	3060,05
1101,46	3061,92
1101,88	3056,80
1102,30	3059,08
1102,71	3061,15
1103,13	3060,58
1103,54	3063,98
1103,96	3058,85
1104,38	3071,00
1104,79	3052,88
1105,21	3063,40
1105,62	3062,58
1106,04	3059,52
1106,46	3059,98
1106,87	3052,30
1107,29	3057,00
1107,70	3066,60
1108,12	3054,88
1108,54	3062,58
1108,95	3062,92
1109,37	3062,40
1109,78	3052,92
1110,20	3059,55
1110,61	3054,18
1111,03	3054,18
1111,44	3054,18
1111,86	3054,18
1112,28	3054,18
1112,69	3054,18
1113,11	3054,18
1113,52	3054,18
1113,94	3054,18
1114,35	3054,18
1114,77	3054,18
1115,18	3054,18
1115,60	3054,18
1116,01	3054,18
1116,43	3054,18
1116,84	3054,18
1117,26	3054,18
1117,67	3054,18
1118,09	3054,18
1118,50	3054,18
1118,92	3054,18
>>>>>End Processed Spectral Data<<<<<
