SpectraSuite Data File
++++++++++++++++++++++++++++++++++++
Date: Tue Jul 12 15:39:50 EEST 2011
User: OO Maya
Dark Spectrum Present: No
Reference Spectrum Present: No
Number of Sampled Component Spectra: 1
Spectrometers: MAYP11278
Integration Time (usec): 20000 (MAYP11278)
Spectra Averaged: 40 (MAYP11278)
Boxcar Smoothing: 0 (MAYP11278)
Correct for Electrical Dark: No (MAYP11278)
Strobe/Lamp Enabled: No (MAYP11278)
Correct for Detector Non-linearity: No (MAYP11278)
Correct for Stray Light: No (MAYP11278)
Number of Pixels in Processed Spectrum: 2068
>>>>>Begin Processed Spectral Data<<<<<
200,00	3027,48
200,47	2997,78
200,95	2997,15
201,42	2995,18
201,89	3029,75
202,37	3029,35
202,84	3030,52
203,31	3029,98
203,79	3035,40
204,26	3032,62
204,73	3032,72
205,20	3031,85
205,68	3036,60
206,15	3034,88
206,62	3037,70
207,10	3034,95
207,57	3037,52
208,04	3035,02
208,51	3033,18
208,99	3040,08
209,46	3032,85
209,93	3033,58
210,41	3032,95
210,88	3032,22
211,35	3034,45
211,82	3036,95
212,30	3033,55
212,77	3036,22
213,24	3038,45
213,71	3035,65
214,19	3037,15
214,66	3032,35
215,13	3035,15
215,60	3032,98
216,08	3037,55
216,55	3037,78
217,02	3035,28
217,49	3033,72
217,96	3037,18
218,44	3034,42
218,91	3036,15
219,38	3041,70
219,85	3034,60
220,33	3036,15
220,80	3034,05
221,27	3039,00
221,74	3037,02
222,21	3034,18
222,69	3035,25
223,16	3035,95
223,63	3034,68
224,10	3033,38
224,57	3038,80
225,04	3036,48
225,52	3034,85
225,99	3040,68
226,46	3036,02
226,93	3038,75
227,40	3036,68
227,87	3036,22
228,35	3036,70
228,82	3034,72
229,29	3033,75
229,76	3036,45
230,23	3037,82
230,70	3032,32
231,18	3033,32
231,65	3034,30
232,12	3036,40
232,59	3040,65
233,06	3034,00
233,53	3038,68
234,00	3033,75
234,48	3035,38
234,95	3033,80
235,42	3035,62
235,89	3035,18
236,36	3034,38
236,83	3032,38
237,30	3035,65
237,77	3034,38
238,24	3033,88
238,72	3036,55
239,19	3034,80
239,66	3036,25
240,13	3036,35
240,60	3035,90
241,07	3035,02
241,54	3033,90
242,01	3033,40
242,48	3037,40
242,95	3039,58
243,42	3036,48
243,90	3036,55
244,37	3032,62
244,84	3034,35
245,31	3036,62
245,78	3044,05
246,25	3034,02
246,72	3036,85
247,19	3035,18
247,66	3035,18
248,13	3038,30
248,60	3040,85
249,07	3035,08
249,54	3037,72
250,01	3037,38
250,48	3037,50
250,95	3035,50
251,42	3034,30
251,89	3038,62
252,36	3039,42
252,83	3038,15
253,30	3034,58
253,77	3037,18
254,24	3038,62
254,71	3035,30
255,18	3034,95
255,65	3038,05
256,12	3041,08
256,59	3034,60
257,06	3040,32
257,53	3039,38
258,00	3035,62
258,47	3037,88
258,94	3037,15
259,41	3036,48
259,88	3036,35
260,35	3033,00
260,82	3035,68
261,29	3037,52
261,76	3036,92
262,23	3040,55
262,70	3036,02
263,17	3039,92
263,64	3040,52
264,11	3033,95
264,58	3038,12
265,05	3037,98
265,52	3035,85
265,99	3036,32
266,46	3037,65
266,93	3039,48
267,40	3034,50
267,87	3039,32
268,34	3038,08
268,81	3037,98
269,28	3044,10
269,74	3038,58
270,21	3036,88
270,68	3038,05
271,15	3037,55
271,62	3040,28
272,09	3034,98
272,56	3034,75
273,03	3041,58
273,50	3035,20
273,97	3037,70
274,44	3036,68
274,90	3034,95
275,37	3039,50
275,84	3040,15
276,31	3036,00
276,78	3035,80
277,25	3037,25
277,72	3038,15
278,19	3035,15
278,66	3033,82
279,12	3037,02
279,59	3037,50
280,06	3031,55
280,53	3034,75
281,00	3034,48
281,47	3038,28
281,94	3039,98
282,40	3034,70
282,87	3038,92
283,34	3033,32
283,81	3034,00
284,28	3032,92
284,75	3038,32
285,21	3044,02
285,68	3039,02
286,15	3038,80
286,62	3033,90
287,09	3034,45
287,56	3037,40
288,02	3037,65
288,49	3035,28
288,96	3035,70
289,43	3033,80
289,90	3044,65
290,36	3037,42
290,83	3033,72
291,30	3045,38
291,77	3038,50
292,24	3042,98
292,70	3035,72
293,17	3039,35
293,64	3035,70
294,11	3035,18
294,58	3038,20
295,04	3037,60
295,51	3034,52
295,98	3037,38
296,45	3036,92
296,91	3037,75
297,38	3037,98
297,85	3035,52
298,32	3037,78
298,79	3041,05
299,25	3037,08
299,72	3037,85
300,19	3035,15
300,66	3040,65
301,12	3035,22
301,59	3038,40
302,06	3037,78
302,52	3040,65
302,99	3042,10
303,46	3036,28
303,93	3041,75
304,39	3036,30
304,86	3038,65
305,33	3039,02
305,80	3036,42
306,26	3039,05
306,73	3039,95
307,20	3042,80
307,66	3043,00
308,13	3038,68
308,60	3038,65
309,07	3039,32
309,53	3036,10
310,00	3042,48
310,47	3037,72
310,93	3039,38
311,40	3035,85
311,87	3039,55
312,33	3039,92
312,80	3040,48
313,27	3037,12
313,73	3041,45
314,20	3040,95
314,67	3038,42
315,13	3037,20
315,60	3037,52
316,07	3038,55
316,53	3039,55
317,00	3039,58
317,47	3038,20
317,93	3038,22
318,40	3037,72
318,87	3038,88
319,33	3039,35
319,80	3039,70
320,26	3040,60
320,73	3039,00
321,20	3039,95
321,66	3040,58
322,13	3038,02
322,60	3040,82
323,06	3037,85
323,53	3042,38
323,99	3034,92
324,46	3039,05
324,93	3038,42
325,39	3036,85
325,86	3037,42
326,32	3040,10
326,79	3037,90
327,26	3040,55
327,72	3037,02
328,19	3038,10
328,65	3045,45
329,12	3037,75
329,59	3037,95
330,05	3035,55
330,52	3038,20
330,98	3041,88
331,45	3039,65
331,91	3039,20
332,38	3033,48
332,85	3034,32
333,31	3042,18
333,78	3036,72
334,24	3039,88
334,71	3034,25
335,17	3037,40
335,64	3037,48
336,10	3037,28
336,57	3037,68
337,03	3038,20
337,50	3039,02
337,96	3038,08
338,43	3037,98
338,90	3038,90
339,36	3037,22
339,83	3037,35
340,29	3036,72
340,76	3035,90
341,22	3041,55
341,69	3039,22
342,15	3043,32
342,62	3037,20
343,08	3043,70
343,55	3040,90
344,01	3041,05
344,48	3041,02
344,94	3039,42
345,41	3039,48
345,87	3048,18
346,34	3036,00
346,80	3038,12
347,27	3040,42
347,73	3040,80
348,19	3037,78
348,66	3038,18
349,12	3042,70
349,59	3041,25
350,05	3036,80
350,52	3037,92
350,98	3036,00
351,45	3039,35
351,91	3041,70
352,38	3037,18
352,84	3041,18
353,30	3041,25
353,77	3040,38
354,23	3036,62
354,70	3039,52
355,16	3037,80
355,63	3039,15
356,09	3040,85
356,55	3039,12
357,02	3037,82
357,48	3044,05
357,95	3038,32
358,41	3042,52
358,87	3039,50
359,34	3037,82
359,80	3038,98
360,27	3041,98
360,73	3038,50
361,19	3039,82
361,66	3041,12
362,12	3045,22
362,59	3040,98
363,05	3040,05
363,51	3039,65
363,98	3039,58
364,44	3038,25
364,91	3039,90
365,37	3040,45
365,83	3045,58
366,30	3037,25
366,76	3046,22
367,22	3037,30
367,69	3047,00
368,15	3042,95
368,61	3037,20
369,08	3039,98
369,54	3039,85
370,00	3039,42
370,47	3042,12
370,93	3042,55
371,39	3039,45
371,86	3039,00
372,32	3039,75
372,78	3039,80
373,25	3040,45
373,71	3043,92
374,17	3040,80
374,64	3037,68
375,10	3041,18
375,56	3038,50
376,03	3038,10
376,49	3040,48
376,95	3040,68
377,42	3040,68
377,88	3037,08
378,34	3035,60
378,80	3041,82
379,27	3038,00
379,73	3042,38
380,19	3041,05
380,66	3038,70
381,12	3040,12
381,58	3040,75
382,04	3039,85
382,51	3037,50
382,97	3040,72
383,43	3040,78
383,89	3039,72
384,36	3039,72
384,82	3041,45
385,28	3037,48
385,74	3043,45
386,21	3039,00
386,67	3039,80
387,13	3036,40
387,59	3041,62
388,06	3041,48
388,52	3040,22
388,98	3040,72
389,44	3040,95
389,91	3043,82
390,37	3043,95
390,83	3041,00
391,29	3043,50
391,75	3042,95
392,22	3038,30
392,68	3041,35
393,14	3040,95
393,60	3043,60
394,06	3042,88
394,53	3055,30
394,99	3041,32
395,45	3042,05
395,91	3041,72
396,37	3046,62
396,84	3041,02
397,30	3038,25
397,76	3043,68
398,22	3042,62
398,68	3044,35
399,14	3043,30
399,61	3044,95
400,07	3044,60
400,53	3044,02
400,99	3044,38
401,45	3044,40
401,91	3045,40
402,38	3043,68
402,84	3044,45
403,30	3050,95
403,76	3045,68
404,22	3047,72
404,68	3044,28
405,14	3049,38
405,61	3058,18
406,07	3044,22
406,53	3048,92
406,99	3050,48
407,45	3048,12
407,91	3051,22
408,37	3050,75
408,83	3050,10
409,29	3054,38
409,76	3049,52
410,22	3053,62
410,68	3055,50
411,14	3057,20
411,60	3058,95
412,06	3058,98
412,52	3058,70
412,98	3066,05
413,44	3063,15
413,90	3065,85
414,36	3073,55
414,83	3073,90
415,29	3071,32
415,75	3079,40
416,21	3080,72
416,67	3089,00
417,13	3087,52
417,59	3091,92
418,05	3100,35
418,51	3099,58
418,97	3110,02
419,43	3111,30
419,89	3125,58
420,35	3128,38
420,81	3141,82
421,27	3145,60
421,73	3155,05
422,19	3172,42
422,65	3184,48
423,11	3195,75
423,57	3212,32
424,03	3233,50
424,49	3245,00
424,96	3269,18
425,42	3291,52
425,88	3312,32
426,34	3340,78
426,80	3369,65
427,26	3396,38
427,72	3431,10
428,18	3469,35
428,64	3509,82
429,10	3547,80
429,56	3597,45
430,02	3649,55
430,47	3710,28
430,93	3767,15
431,39	3839,48
431,85	3903,10
432,31	3988,90
432,77	4072,32
433,23	4168,82
433,69	4262,65
434,15	4375,42
434,61	4490,05
435,07	4616,52
435,53	4751,20
435,99	4890,55
436,45	5052,45
436,91	5222,22
437,37	5394,02
437,83	5608,22
438,29	5813,10
438,75	6032,15
439,21	6277,42
439,67	6552,70
440,12	6815,80
440,58	7127,38
441,04	7445,40
441,50	7785,95
441,96	8144,68
442,42	8537,48
442,88	8976,88
443,34	9409,08
443,80	9894,05
444,26	10402,90
444,72	10959,70
445,17	11564,60
445,63	12188,85
446,09	12864,68
446,55	13577,50
447,01	14353,58
447,47	15151,58
447,93	15989,45
448,39	16919,30
448,85	17857,22
449,30	18882,30
449,76	19927,45
450,22	21049,10
450,68	22215,15
451,14	23484,20
451,60	24752,28
452,06	26090,95
452,51	27457,50
452,97	28885,65
453,43	30354,80
453,89	31776,02
454,35	33271,18
454,81	34759,58
455,26	36261,52
455,72	37820,38
456,18	39335,52
456,64	40802,70
457,10	42222,78
457,56	43665,35
458,01	44953,72
458,47	46204,98
458,93	47349,40
459,39	48368,95
459,85	49283,65
460,30	50117,68
460,76	50742,78
461,22	51272,18
461,68	51614,58
462,14	51837,30
462,59	51900,70
463,05	51811,75
463,51	51601,05
463,97	51177,20
464,43	50613,52
464,88	49913,50
465,34	49095,12
465,80	48161,90
466,26	47161,48
466,71	46024,38
467,17	44896,75
467,63	43663,15
468,09	42403,95
468,54	41141,50
469,00	39890,22
469,46	38603,90
469,92	37364,78
470,37	36122,42
470,83	34948,12
471,29	33790,80
471,75	32650,40
472,20	31566,15
472,66	30512,20
473,12	29485,88
473,58	28542,35
474,03	27655,12
474,49	26792,45
474,95	26010,20
475,40	25217,10
475,86	24481,85
476,32	23777,18
476,78	23122,68
477,23	22465,92
477,69	21830,22
478,15	21201,85
478,60	20594,08
479,06	19989,20
479,52	19414,35
479,97	18834,52
480,43	18285,32
480,89	17735,72
481,34	17177,30
481,80	16649,48
482,26	16124,88
482,71	15609,48
483,17	15107,88
483,63	14617,28
484,08	14161,45
484,54	13690,95
485,00	13252,32
485,45	12800,12
485,91	12393,12
486,37	12000,62
486,82	11594,45
487,28	11231,70
487,74	10855,12
488,19	10528,52
488,65	10205,72
489,10	9908,85
489,56	9608,18
490,02	9325,38
490,47	9072,40
490,93	8828,92
491,39	8593,42
491,84	8373,45
492,30	8174,22
492,75	7976,30
493,21	7782,95
493,67	7600,00
494,12	7420,58
494,58	7262,72
495,03	7106,30
495,49	6949,42
495,95	6808,78
496,40	6657,95
496,86	6534,02
497,31	6404,70
497,77	6272,72
498,23	6160,90
498,68	6042,45
499,14	5933,18
499,59	5826,90
500,05	5716,52
500,50	5614,22
500,96	5517,92
501,41	5431,15
501,87	5342,22
502,33	5252,22
502,78	5169,55
503,24	5080,55
503,69	5000,28
504,15	4933,15
504,60	4850,78
505,06	4783,82
505,51	4711,48
505,97	4648,05
506,42	4580,72
506,88	4523,00
507,33	4460,75
507,79	4408,35
508,24	4353,62
508,70	4297,42
509,15	4250,40
509,61	4206,88
510,06	4168,08
510,52	4116,15
510,97	4081,95
511,43	4046,38
511,88	4011,42
512,34	3970,42
512,79	3943,22
513,25	3912,18
513,70	3876,08
514,16	3848,38
514,61	3820,85
515,07	3791,72
515,52	3764,65
515,98	3741,85
516,43	3718,80
516,89	3690,70
517,34	3670,65
517,80	3648,55
518,25	3628,80
518,70	3608,40
519,16	3594,62
519,61	3572,25
520,07	3554,55
520,52	3530,25
520,98	3516,85
521,43	3500,65
521,89	3484,08
522,34	3471,98
522,79	3458,58
523,25	3438,88
523,70	3426,92
524,16	3417,32
524,61	3403,18
525,06	3394,22
525,52	3380,95
525,97	3362,88
526,43	3366,58
526,88	3345,30
527,33	3332,52
527,79	3320,62
528,24	3315,98
528,70	3310,30
529,15	3298,72
529,60	3291,30
530,06	3282,48
530,51	3274,18
530,97	3273,30
531,42	3266,78
531,87	3252,50
532,33	3254,05
532,78	3246,52
533,23	3238,32
533,69	3228,48
534,14	3225,55
534,59	3221,12
535,05	3216,02
535,50	3207,62
535,96	3208,75
536,41	3203,02
536,86	3196,72
537,32	3190,48
537,77	3190,18
538,22	3187,75
538,68	3176,85
539,13	3181,30
539,58	3171,50
540,03	3168,95
540,49	3167,60
540,94	3166,50
541,39	3162,28
541,85	3159,18
542,30	3155,45
542,75	3150,95
543,21	3149,48
543,66	3148,40
544,11	3143,45
544,57	3139,45
545,02	3140,20
545,47	3136,45
545,92	3134,70
546,38	3138,42
546,83	3132,32
547,28	3142,25
547,73	3125,05
548,19	3128,45
548,64	3122,52
549,09	3118,85
549,55	3123,15
550,00	3120,20
550,45	3115,65
550,90	3123,38
551,36	3113,68
551,81	3118,58
552,26	3114,10
552,71	3112,58
553,17	3108,28
553,62	3111,10
554,07	3108,10
554,52	3106,50
554,97	3107,18
555,43	3104,95
555,88	3102,12
556,33	3102,30
556,78	3098,90
557,24	3106,42
557,69	3100,42
558,14	3094,60
558,59	3100,28
559,04	3096,62
559,50	3100,15
559,95	3097,92
560,40	3092,10
560,85	3095,88
561,30	3092,22
561,76	3089,70
562,21	3093,70
562,66	3090,08
563,11	3095,35
563,56	3088,15
564,01	3091,68
564,47	3087,45
564,92	3087,68
565,37	3091,08
565,82	3084,90
566,27	3085,08
566,72	3084,92
567,18	3082,78
567,63	3082,55
568,08	3085,60
568,53	3083,92
568,98	3081,70
569,43	3080,90
569,88	3081,60
570,34	3081,65
570,79	3082,55
571,24	3078,48
571,69	3079,40
572,14	3077,50
572,59	3077,90
573,04	3078,32
573,49	3080,68
573,94	3076,32
574,40	3074,90
574,85	3077,95
575,30	3076,78
575,75	3076,28
576,20	3072,38
576,65	3076,60
577,10	3074,20
577,55	3073,55
578,00	3074,08
578,45	3073,58
578,91	3071,52
579,36	3071,60
579,81	3074,38
580,26	3069,92
580,71	3069,55
581,16	3072,32
581,61	3072,55
582,06	3070,92
582,51	3067,78
582,96	3067,85
583,41	3067,22
583,86	3070,65
584,31	3066,25
584,76	3068,90
585,21	3064,45
585,66	3070,48
586,11	3067,50
586,56	3065,32
587,01	3066,42
587,46	3066,22
587,92	3065,60
588,37	3064,40
588,82	3065,08
589,27	3064,35
589,72	3060,95
590,17	3064,38
590,62	3064,58
591,07	3061,75
591,52	3062,48
591,97	3060,08
592,42	3069,80
592,87	3062,65
593,32	3061,95
593,77	3060,20
594,22	3062,25
594,67	3063,62
595,12	3058,20
595,56	3063,25
596,01	3060,30
596,46	3059,65
596,91	3062,55
597,36	3061,08
597,81	3058,12
598,26	3057,48
598,71	3062,82
599,16	3058,08
599,61	3059,00
600,06	3057,68
600,51	3060,18
600,96	3057,45
601,41	3058,42
601,86	3058,55
602,31	3056,05
602,76	3055,65
603,21	3062,48
603,66	3057,12
604,11	3058,72
604,55	3058,20
605,00	3055,08
605,45	3055,32
605,90	3059,68
606,35	3053,70
606,80	3059,28
607,25	3057,48
607,70	3056,58
608,15	3059,92
608,60	3051,68
609,04	3063,08
609,49	3053,40
609,94	3054,72
610,39	3052,15
610,84	3051,15
611,29	3055,72
611,74	3054,12
612,19	3054,88
612,64	3054,80
613,08	3050,08
613,53	3053,65
613,98	3052,00
614,43	3053,15
614,88	3054,22
615,33	3053,48
615,78	3058,58
616,22	3054,85
616,67	3051,98
617,12	3050,50
617,57	3052,02
618,02	3050,12
618,47	3056,80
618,91	3052,02
619,36	3053,08
619,81	3059,78
620,26	3049,15
620,71	3049,02
621,16	3049,85
621,60	3049,92
622,05	3052,98
622,50	3049,15
622,95	3049,25
623,40	3049,42
623,84	3051,15
624,29	3051,88
624,74	3051,10
625,19	3048,32
625,64	3050,05
626,08	3050,82
626,53	3050,65
626,98	3051,32
627,43	3053,30
627,87	3049,42
628,32	3052,78
628,77	3053,48
629,22	3051,45
629,66	3047,30
630,11	3048,62
630,56	3053,72
631,01	3047,45
631,46	3047,98
631,90	3050,38
632,35	3046,40
632,80	3047,68
633,25	3050,52
633,69	3047,60
634,14	3049,80
634,59	3050,65
635,03	3043,25
635,48	3047,35
635,93	3050,70
636,38	3047,48
636,82	3050,85
637,27	3048,40
637,72	3051,02
638,16	3047,68
638,61	3050,18
639,06	3047,48
639,51	3047,32
639,95	3046,00
640,40	3047,18
640,85	3044,75
641,29	3046,62
641,74	3047,92
642,19	3044,20
642,63	3046,30
643,08	3046,00
643,53	3045,35
643,97	3048,62
644,42	3047,98
644,87	3045,08
645,31	3047,75
645,76	3045,18
646,21	3044,80
646,65	3045,42
647,10	3049,00
647,55	3043,20
647,99	3046,00
648,44	3045,52
648,89	3042,80
649,33	3042,82
649,78	3047,75
650,23	3043,58
650,67	3042,78
651,12	3042,95
651,56	3044,08
652,01	3046,62
652,46	3046,78
652,90	3044,90
653,35	3047,05
653,80	3045,58
654,24	3045,72
654,69	3043,65
655,13	3046,25
655,58	3045,68
656,03	3056,25
656,47	3043,28
656,92	3044,15
657,36	3043,20
657,81	3044,50
658,26	3042,12
658,70	3043,42
659,15	3043,40
659,59	3043,40
660,04	3045,15
660,48	3044,55
660,93	3045,38
661,38	3041,92
661,82	3045,55
662,27	3043,52
662,71	3043,48
663,16	3044,18
663,60	3044,30
664,05	3042,02
664,49	3044,25
664,94	3041,40
665,38	3054,65
665,83	3041,30
666,28	3047,35
666,72	3043,38
667,17	3041,38
667,61	3043,72
668,06	3039,65
668,50	3040,22
668,95	3044,95
669,39	3041,48
669,84	3042,25
670,28	3041,30
670,73	3041,52
671,17	3043,08
671,62	3042,75
672,06	3043,05
672,51	3041,88
672,95	3049,28
673,40	3047,40
673,84	3039,58
674,29	3044,60
674,73	3040,98
675,18	3046,15
675,62	3038,50
676,07	3040,48
676,51	3046,58
676,95	3039,85
677,40	3047,30
677,84	3047,80
678,29	3040,08
678,73	3043,18
679,18	3043,72
679,62	3052,68
680,07	3043,02
680,51	3041,35
680,96	3040,58
681,40	3039,35
681,84	3041,15
682,29	3042,80
682,73	3042,15
683,18	3040,50
683,62	3049,92
684,07	3041,22
684,51	3041,82
684,95	3041,15
685,40	3040,78
685,84	3039,80
686,29	3041,82
686,73	3036,48
687,17	3036,88
687,62	3041,88
688,06	3041,48
688,51	3043,38
688,95	3043,68
689,39	3040,80
689,84	3047,08
690,28	3040,00
690,73	3042,62
691,17	3043,05
691,61	3040,88
692,06	3038,85
692,50	3040,60
692,94	3041,82
693,39	3042,02
693,83	3043,25
694,27	3050,15
694,72	3043,62
695,16	3037,95
695,60	3042,35
696,05	3040,20
696,49	3037,05
696,94	3038,30
697,38	3037,98
697,82	3039,45
698,27	3040,18
698,71	3042,55
699,15	3041,58
699,59	3040,82
700,04	3040,08
700,48	3051,58
700,92	3041,48
701,37	3038,95
701,81	3046,38
702,25	3039,42
702,70	3037,25
703,14	3041,70
703,58	3039,15
704,03	3043,38
704,47	3042,10
704,91	3038,32
705,35	3039,30
705,80	3042,38
706,24	3040,78
706,68	3050,10
707,13	3036,92
707,57	3044,82
708,01	3036,00
708,45	3038,70
708,90	3041,35
709,34	3039,60
709,78	3037,60
710,22	3039,95
710,67	3044,05
711,11	3042,48
711,55	3037,55
711,99	3040,70
712,44	3037,98
712,88	3038,88
713,32	3040,10
713,76	3042,20
714,21	3038,70
714,65	3039,52
715,09	3039,30
715,53	3039,68
715,97	3037,32
716,42	3039,78
716,86	3038,90
717,30	3038,60
717,74	3037,05
718,18	3044,80
718,63	3039,88
719,07	3040,02
719,51	3042,50
719,95	3041,62
720,39	3039,08
720,84	3039,72
721,28	3038,08
721,72	3039,12
722,16	3036,52
722,60	3035,82
723,04	3041,55
723,49	3043,28
723,93	3034,38
724,37	3035,10
724,81	3037,90
725,25	3038,15
725,69	3036,20
726,14	3040,60
726,58	3035,55
727,02	3038,68
727,46	3038,08
727,90	3034,80
728,34	3037,02
728,78	3038,40
729,23	3034,82
729,67	3038,32
730,11	3035,30
730,55	3036,95
730,99	3038,68
731,43	3038,00
731,87	3043,08
732,31	3035,70
732,76	3042,52
733,20	3041,38
733,64	3037,08
734,08	3039,85
734,52	3035,50
734,96	3040,70
735,40	3034,52
735,84	3038,35
736,28	3039,68
736,72	3038,60
737,16	3038,30
737,61	3034,58
738,05	3039,98
738,49	3037,90
738,93	3036,05
739,37	3040,80
739,81	3039,28
740,25	3037,12
740,69	3043,85
741,13	3035,20
741,57	3038,42
742,01	3037,98
742,45	3037,78
742,89	3038,60
743,33	3036,22
743,77	3036,25
744,21	3035,00
744,65	3040,02
745,09	3038,32
745,53	3034,62
745,98	3039,28
746,42	3037,98
746,86	3038,95
747,30	3038,80
747,74	3036,30
748,18	3035,10
748,62	3036,48
749,06	3039,58
749,50	3039,62
749,94	3037,28
750,38	3040,50
750,82	3038,82
751,26	3032,78
751,70	3035,88
752,14	3033,52
752,58	3038,45
753,02	3038,62
753,45	3036,30
753,89	3037,75
754,33	3043,40
754,77	3035,98
755,21	3035,02
755,65	3035,15
756,09	3036,05
756,53	3034,82
756,97	3037,32
757,41	3042,20
757,85	3034,92
758,29	3036,40
758,73	3033,40
759,17	3035,65
759,61	3036,00
760,05	3039,65
760,49	3037,65
760,93	3038,50
761,37	3035,00
761,80	3039,85
762,24	3036,90
762,68	3036,78
763,12	3037,32
763,56	3036,55
764,00	3036,90
764,44	3035,65
764,88	3036,80
765,32	3034,25
765,76	3038,62
766,20	3039,68
766,63	3035,78
767,07	3032,70
767,51	3035,50
767,95	3039,10
768,39	3035,15
768,83	3034,10
769,27	3034,95
769,71	3038,85
770,14	3034,25
770,58	3033,10
771,02	3035,70
771,46	3036,95
771,90	3036,30
772,34	3036,35
772,78	3036,50
773,21	3035,62
773,65	3038,88
774,09	3034,70
774,53	3035,05
774,97	3034,15
775,41	3033,80
775,84	3037,12
776,28	3037,02
776,72	3035,15
777,16	3033,22
777,60	3035,02
778,04	3035,00
778,47	3031,50
778,91	3036,78
779,35	3032,62
779,79	3034,92
780,23	3035,62
780,66	3034,15
781,10	3034,18
781,54	3034,22
781,98	3038,42
782,42	3036,88
782,85	3034,82
783,29	3037,08
783,73	3043,12
784,17	3040,82
784,61	3034,85
785,04	3039,20
785,48	3035,78
785,92	3034,22
786,36	3036,88
786,79	3033,68
787,23	3034,82
787,67	3036,65
788,11	3036,98
788,54	3035,42
788,98	3035,35
789,42	3035,92
789,86	3034,00
790,29	3038,20
790,73	3036,10
791,17	3037,60
791,60	3032,28
792,04	3033,80
792,48	3035,78
792,92	3033,25
793,35	3034,10
793,79	3033,28
794,23	3033,62
794,67	3034,42
795,10	3032,85
795,54	3038,30
795,98	3033,32
796,41	3035,48
796,85	3034,55
797,29	3044,68
797,72	3037,90
798,16	3036,20
798,60	3035,12
799,03	3033,50
799,47	3032,80
799,91	3035,90
800,34	3033,30
800,78	3034,98
801,22	3032,40
801,65	3030,70
802,09	3034,92
802,53	3038,35
802,96	3036,85
803,40	3031,72
803,84	3040,28
804,27	3036,28
804,71	3032,28
805,15	3035,80
805,58	3034,10
806,02	3032,42
806,46	3036,58
806,89	3039,08
807,33	3037,52
807,76	3034,30
808,20	3034,88
808,64	3033,80
809,07	3038,50
809,51	3040,98
809,95	3039,48
810,38	3036,68
810,82	3037,58
811,25	3031,82
811,69	3032,75
812,13	3032,80
812,56	3035,20
813,00	3033,72
813,43	3033,30
813,87	3032,05
814,30	3036,20
814,74	3037,40
815,18	3043,25
815,61	3031,75
816,05	3033,12
816,48	3034,92
816,92	3039,95
817,35	3036,00
817,79	3033,40
818,23	3035,45
818,66	3035,30
819,10	3035,58
819,53	3032,80
819,97	3032,08
820,40	3032,65
820,84	3036,80
821,27	3034,22
821,71	3036,00
822,14	3030,52
822,58	3035,25
823,01	3036,32
823,45	3032,72
823,88	3034,88
824,32	3032,38
824,75	3034,05
825,19	3033,32
825,63	3037,38
826,06	3031,00
826,50	3034,78
826,93	3035,15
827,37	3030,70
827,80	3034,82
828,23	3032,92
828,67	3034,08
829,10	3033,50
829,54	3032,20
829,97	3032,25
830,41	3031,05
830,84	3034,08
831,28	3035,12
831,71	3035,98
832,15	3032,80
832,58	3037,22
833,02	3035,82
833,45	3031,02
833,89	3037,40
834,32	3033,08
834,75	3038,68
835,19	3036,05
835,62	3035,35
836,06	3030,42
836,49	3033,70
836,93	3033,60
837,36	3035,00
837,79	3034,92
838,23	3032,88
838,66	3029,92
839,10	3035,88
839,53	3033,60
839,97	3032,30
840,40	3032,80
840,83	3036,65
841,27	3032,68
841,70	3032,70
842,14	3034,58
842,57	3032,32
843,00	3036,58
843,44	3039,20
843,87	3032,65
844,31	3034,82
844,74	3030,02
845,17	3030,75
845,61	3030,15
846,04	3031,88
846,47	3035,15
846,91	3032,42
847,34	3034,38
847,77	3033,88
848,21	3032,62
848,64	3036,02
849,08	3031,98
849,51	3033,25
849,94	3031,48
850,38	3030,12
850,81	3032,65
851,24	3030,32
851,68	3031,32
852,11	3031,30
852,54	3035,18
852,98	3035,12
853,41	3035,90
853,84	3031,12
854,28	3036,80
854,71	3031,98
855,14	3034,35
855,57	3035,32
856,01	3031,42
856,44	3032,80
856,87	3034,30
857,31	3030,30
857,74	3034,58
858,17	3030,75
858,61	3030,55
859,04	3034,45
859,47	3035,85
859,90	3034,05
860,34	3034,52
860,77	3035,12
861,20	3029,62
861,63	3036,08
862,07	3028,95
862,50	3030,15
862,93	3030,48
863,37	3030,60
863,80	3031,58
864,23	3034,78
864,66	3030,48
865,10	3032,48
865,53	3033,80
865,96	3031,65
866,39	3031,32
866,82	3034,52
867,26	3031,80
867,69	3033,35
868,12	3031,70
868,55	3029,58
868,99	3031,08
869,42	3030,30
869,85	3032,60
870,28	3030,42
870,71	3031,00
871,15	3032,90
871,58	3030,22
872,01	3034,58
872,44	3033,85
872,87	3035,15
873,31	3038,72
873,74	3029,82
874,17	3032,08
874,60	3033,68
875,03	3032,45
875,47	3030,90
875,90	3034,05
876,33	3033,00
876,76	3035,45
877,19	3034,15
877,62	3031,52
878,06	3032,35
878,49	3035,18
878,92	3026,95
879,35	3033,10
879,78	3031,92
880,21	3031,35
880,64	3030,92
881,08	3033,28
881,51	3032,70
881,94	3032,68
882,37	3036,50
882,80	3029,32
883,23	3031,15
883,66	3031,68
884,09	3031,42
884,53	3035,25
884,96	3031,52
885,39	3030,05
885,82	3032,52
886,25	3031,95
886,68	3030,22
887,11	3035,18
887,54	3032,78
887,97	3032,90
888,40	3033,40
888,84	3033,10
889,27	3030,18
889,70	3037,52
890,13	3032,25
890,56	3029,32
890,99	3031,88
891,42	3029,15
891,85	3041,70
892,28	3029,55
892,71	3033,18
893,14	3030,32
893,57	3032,95
894,00	3033,55
894,43	3028,10
894,86	3032,25
895,29	3030,20
895,73	3028,42
896,16	3030,32
896,59	3032,85
897,02	3030,40
897,45	3033,68
897,88	3031,52
898,31	3030,12
898,74	3033,52
899,17	3033,12
899,60	3030,38
900,03	3028,78
900,46	3029,82
900,89	3032,02
901,32	3034,62
901,75	3029,55
902,18	3029,62
902,61	3030,60
903,04	3034,75
903,47	3032,85
903,90	3030,25
904,33	3036,85
904,76	3038,25
905,19	3029,92
905,62	3031,48
906,05	3034,40
906,48	3028,68
906,91	3032,42
907,34	3030,88
907,76	3030,20
908,19	3029,25
908,62	3032,95
909,05	3032,22
909,48	3033,12
909,91	3032,72
910,34	3029,78
910,77	3035,65
911,20	3034,50
911,63	3032,45
912,06	3029,72
912,49	3032,52
912,92	3032,88
913,35	3031,78
913,78	3029,55
914,21	3031,52
914,63	3031,42
915,06	3029,60
915,49	3032,15
915,92	3031,50
916,35	3029,40
916,78	3028,65
917,21	3026,82
917,64	3031,72
918,07	3029,52
918,50	3032,58
918,92	3028,92
919,35	3034,08
919,78	3030,38
920,21	3032,38
920,64	3029,45
921,07	3030,68
921,50	3030,38
921,93	3032,88
922,35	3030,88
922,78	3031,75
923,21	3034,95
923,64	3032,52
924,07	3030,22
924,50	3029,50
924,92	3028,02
925,35	3030,20
925,78	3035,85
926,21	3034,15
926,64	3028,35
927,07	3033,38
927,49	3029,48
927,92	3031,42
928,35	3036,88
928,78	3030,48
929,21	3031,62
929,64	3028,08
930,06	3037,52
930,49	3030,65
930,92	3028,52
931,35	3033,32
931,78	3031,70
932,20	3032,20
932,63	3032,50
933,06	3030,68
933,49	3032,02
933,92	3027,10
934,34	3035,80
934,77	3034,38
935,20	3038,00
935,63	3030,58
936,05	3032,62
936,48	3034,05
936,91	3033,38
937,34	3031,88
937,76	3029,35
938,19	3030,40
938,62	3030,98
939,05	3032,62
939,47	3030,80
939,90	3033,58
940,33	3029,18
940,76	3030,42
941,18	3032,60
941,61	3029,12
942,04	3030,38
942,47	3033,68
942,89	3037,42
943,32	3031,58
943,75	3033,48
944,17	3027,72
944,60	3029,45
945,03	3032,58
945,46	3028,32
945,88	3028,78
946,31	3033,42
946,74	3031,18
947,16	3031,72
947,59	3031,82
948,02	3031,12
948,44	3032,28
948,87	3033,18
949,30	3031,68
949,72	3031,05
950,15	3033,68
950,58	3028,42
951,00	3027,20
951,43	3029,45
951,86	3037,42
952,28	3034,92
952,71	3029,98
953,14	3030,80
953,56	3032,80
953,99	3027,55
954,42	3033,38
954,84	3030,48
955,27	3035,92
955,70	3028,50
956,12	3031,32
956,55	3029,65
956,98	3028,80
957,40	3030,52
957,83	3031,75
958,25	3029,18
958,68	3033,18
959,11	3039,05
959,53	3027,90
959,96	3031,02
960,38	3031,82
960,81	3028,40
961,24	3029,35
961,66	3028,65
962,09	3027,95
962,51	3030,10
962,94	3032,98
963,37	3032,25
963,79	3031,60
964,22	3031,50
964,64	3029,30
965,07	3030,80
965,49	3030,22
965,92	3032,98
966,35	3029,48
966,77	3027,62
967,20	3033,20
967,62	3029,85
968,05	3031,82
968,47	3032,12
968,90	3030,10
969,32	3030,48
969,75	3034,12
970,17	3042,18
970,60	3032,88
971,03	3031,58
971,45	3031,55
971,88	3027,68
972,30	3031,48
972,73	3031,52
973,15	3030,78
973,58	3031,70
974,00	3028,15
974,43	3028,40
974,85	3030,95
975,28	3033,85
975,70	3030,10
976,13	3031,45
976,55	3031,52
976,98	3028,62
977,40	3029,55
977,83	3028,80
978,25	3030,05
978,68	3028,32
979,10	3031,18
979,53	3031,52
979,95	3029,68
980,37	3029,58
980,80	3028,92
981,22	3034,20
981,65	3032,25
982,07	3030,65
982,50	3032,38
982,92	3031,95
983,35	3030,42
983,77	3031,90
984,20	3029,58
984,62	3031,50
985,04	3030,32
985,47	3032,38
985,89	3032,85
986,32	3028,42
986,74	3027,38
987,17	3032,15
987,59	3031,05
988,01	3029,65
988,44	3028,60
988,86	3031,72
989,29	3030,98
989,71	3030,08
990,13	3030,30
990,56	3030,62
990,98	3031,35
991,41	3030,18
991,83	3030,48
992,25	3032,58
992,68	3030,60
993,10	3035,22
993,53	3028,10
993,95	3027,05
994,37	3030,90
994,80	3028,75
995,22	3028,90
995,64	3032,38
996,07	3032,42
996,49	3031,55
996,91	3031,00
997,34	3027,78
997,76	3027,88
998,18	3027,98
998,61	3032,15
999,03	3033,40
999,45	3028,68
999,88	3030,98
1000,30	3028,05
1000,72	3035,50
1001,15	3029,40
1001,57	3030,28
1001,99	3033,02
1002,42	3026,95
1002,84	3030,02
1003,26	3033,18
1003,69	3031,38
1004,11	3031,72
1004,53	3030,38
1004,96	3032,58
1005,38	3029,38
1005,80	3031,88
1006,22	3031,08
1006,65	3034,62
1007,07	3030,68
1007,49	3027,92
1007,92	3030,68
1008,34	3031,12
1008,76	3028,88
1009,18	3028,90
1009,61	3030,58
1010,03	3030,68
1010,45	3039,78
1010,87	3033,70
1011,30	3031,05
1011,72	3031,20
1012,14	3032,42
1012,56	3033,60
1012,99	3031,70
1013,41	3031,58
1013,83	3032,30
1014,25	3033,20
1014,68	3030,85
1015,10	3029,22
1015,52	3033,62
1015,94	3029,02
1016,37	3033,08
1016,79	3029,90
1017,21	3031,62
1017,63	3027,15
1018,05	3031,78
1018,48	3028,90
1018,90	3029,70
1019,32	3028,95
1019,74	3026,30
1020,16	3038,05
1020,59	3034,68
1021,01	3032,40
1021,43	3030,48
1021,85	3029,28
1022,27	3032,72
1022,69	3030,15
1023,12	3032,92
1023,54	3028,70
1023,96	3039,95
1024,38	3033,35
1024,80	3032,25
1025,22	3033,42
1025,65	3031,95
1026,07	3030,72
1026,49	3033,95
1026,91	3028,65
1027,33	3028,25
1027,75	3036,40
1028,17	3033,35
1028,60	3032,72
1029,02	3029,75
1029,44	3030,80
1029,86	3028,75
1030,28	3035,08
1030,70	3030,78
1031,12	3031,80
1031,54	3031,85
1031,97	3034,00
1032,39	3029,28
1032,81	3030,10
1033,23	3034,50
1033,65	3030,00
1034,07	3032,30
1034,49	3028,15
1034,91	3029,05
1035,33	3030,98
1035,75	3032,28
1036,18	3028,18
1036,60	3035,12
1037,02	3030,00
1037,44	3029,32
1037,86	3031,92
1038,28	3029,72
1038,70	3033,55
1039,12	3032,45
1039,54	3033,48
1039,96	3034,40
1040,38	3033,72
1040,80	3030,88
1041,22	3031,00
1041,64	3033,55
1042,06	3028,25
1042,48	3033,25
1042,90	3034,72
1043,32	3031,72
1043,74	3033,08
1044,17	3032,25
1044,59	3033,65
1045,01	3029,28
1045,43	3031,55
1045,85	3028,42
1046,27	3027,95
1046,69	3031,50
1047,11	3032,38
1047,53	3028,25
1047,95	3031,32
1048,37	3035,28
1048,79	3029,80
1049,21	3032,90
1049,63	3034,12
1050,05	3033,72
1050,47	3031,12
1050,89	3030,32
1051,31	3032,40
1051,72	3032,92
1052,14	3034,95
1052,56	3033,65
1052,98	3031,95
1053,40	3033,92
1053,82	3025,92
1054,24	3032,90
1054,66	3026,72
1055,08	3029,55
1055,50	3029,28
1055,92	3030,52
1056,34	3032,52
1056,76	3035,18
1057,18	3033,00
1057,60	3032,35
1058,02	3032,50
1058,44	3041,28
1058,86	3028,98
1059,28	3030,98
1059,69	3033,88
1060,11	3031,60
1060,53	3028,88
1060,95	3031,10
1061,37	3032,72
1061,79	3032,28
1062,21	3030,22
1062,63	3033,32
1063,05	3035,75
1063,47	3032,15
1063,88	3030,80
1064,30	3026,85
1064,72	3035,90
1065,14	3034,58
1065,56	3030,65
1065,98	3029,65
1066,40	3027,05
1066,82	3032,92
1067,23	3032,42
1067,65	3030,82
1068,07	3030,00
1068,49	3031,58
1068,91	3034,45
1069,33	3031,72
1069,75	3028,80
1070,16	3027,40
1070,58	3033,50
1071,00	3033,98
1071,42	3034,70
1071,84	3031,82
1072,26	3033,38
1072,67	3030,72
1073,09	3030,18
1073,51	3028,30
1073,93	3034,12
1074,35	3032,18
1074,77	3028,95
1075,18	3029,10
1075,60	3029,30
1076,02	3030,95
1076,44	3029,62
1076,86	3028,95
1077,27	3032,25
1077,69	3032,62
1078,11	3030,70
1078,53	3034,68
1078,94	3034,40
1079,36	3026,88
1079,78	3031,25
1080,20	3031,70
1080,62	3031,50
1081,03	3032,38
1081,45	3029,48
1081,87	3030,45
1082,29	3032,32
1082,70	3030,88
1083,12	3030,30
1083,54	3031,42
1083,96	3032,55
1084,37	3034,12
1084,79	3030,78
1085,21	3032,22
1085,63	3034,45
1086,04	3030,72
1086,46	3029,68
1086,88	3031,25
1087,30	3029,55
1087,71	3034,98
1088,13	3158,80
1088,55	3031,45
1088,96	3029,98
1089,38	3031,18
1089,80	3032,50
1090,22	3035,52
1090,63	3030,62
1091,05	3029,25
1091,47	3032,90
1091,88	3030,78
1092,30	3029,60
1092,72	3032,25
1093,13	3031,65
1093,55	3031,25
1093,97	3032,68
1094,38	3031,12
1094,80	3032,30
1095,22	3029,70
1095,63	3030,80
1096,05	3030,65
1096,47	3035,22
1096,88	3029,45
1097,30	3031,02
1097,72	3029,32
1098,13	3033,02
1098,55	3032,70
1098,97	3034,95
1099,38	3031,08
1099,80	3032,00
1100,21	3030,32
1100,63	3029,68
1101,05	3030,88
1101,46	3031,72
1101,88	3030,05
1102,30	3030,70
1102,71	3030,20
1103,13	3032,22
1103,54	3031,22
1103,96	3031,22
1104,38	3034,72
1104,79	3028,05
1105,21	3030,05
1105,62	3030,55
1106,04	3029,85
1106,46	3031,70
1106,87	3026,70
1107,29	3027,02
1107,70	3033,85
1108,12	3026,82
1108,54	3031,90
1108,95	3033,42
1109,37	3032,10
1109,78	3028,30
1110,20	3029,75
1110,61	3027,42
1111,03	3027,42
1111,44	3027,42
1111,86	3027,42
1112,28	3027,42
1112,69	3027,42
1113,11	3027,42
1113,52	3027,42
1113,94	3027,42
1114,35	3027,42
1114,77	3027,42
1115,18	3027,42
1115,60	3027,42
1116,01	3027,42
1116,43	3027,42
1116,84	3027,42
1117,26	3027,42
1117,67	3027,42
1118,09	3027,42
1118,50	3027,42
1118,92	3027,42
>>>>>End Processed Spectral Data<<<<<
