SpectraSuite Data File
++++++++++++++++++++++++++++++++++++
Date: Tue Jul 12 15:54:29 EEST 2011
User: OO Maya
Dark Spectrum Present: No
Reference Spectrum Present: No
Number of Sampled Component Spectra: 1
Spectrometers: MAYP11278
Integration Time (usec): 50000 (MAYP11278)
Spectra Averaged: 40 (MAYP11278)
Boxcar Smoothing: 0 (MAYP11278)
Correct for Electrical Dark: No (MAYP11278)
Strobe/Lamp Enabled: No (MAYP11278)
Correct for Detector Non-linearity: No (MAYP11278)
Correct for Stray Light: No (MAYP11278)
Number of Pixels in Processed Spectrum: 2068
>>>>>Begin Processed Spectral Data<<<<<
200,00	3087,78
200,47	2999,92
200,95	3000,92
201,42	2997,08
201,89	3092,20
202,37	3098,42
202,84	3100,12
203,31	3101,90
203,79	3110,50
204,26	3103,60
204,73	3101,52
205,20	3101,75
205,68	3106,30
206,15	3104,45
206,62	3110,50
207,10	3104,70
207,57	3109,90
208,04	3105,05
208,51	3105,58
208,99	3120,35
209,46	3102,42
209,93	3099,48
210,41	3102,00
210,88	3099,18
211,35	3107,45
211,82	3109,60
212,30	3103,70
212,77	3105,02
213,24	3108,60
213,71	3110,42
214,19	3109,05
214,66	3101,48
215,13	3106,75
215,60	3099,78
216,08	3111,55
216,55	3109,72
217,02	3103,78
217,49	3101,52
217,96	3114,02
218,44	3103,10
218,91	3106,40
219,38	3123,15
219,85	3105,92
220,33	3108,82
220,80	3104,38
221,27	3110,02
221,74	3108,88
222,21	3106,78
222,69	3106,80
223,16	3107,85
223,63	3107,35
224,10	3101,48
224,57	3116,18
225,04	3106,75
225,52	3101,82
225,99	3119,15
226,46	3107,45
226,93	3114,62
227,40	3105,98
227,87	3108,12
228,35	3110,85
228,82	3107,98
229,29	3101,80
229,76	3104,22
230,23	3113,32
230,70	3097,15
231,18	3103,52
231,65	3102,32
232,12	3106,05
232,59	3113,68
233,06	3102,98
233,53	3110,85
234,00	3099,98
234,48	3110,18
234,95	3104,85
235,42	3111,58
235,89	3105,78
236,36	3103,15
236,83	3100,12
237,30	3105,12
237,77	3102,08
238,24	3105,95
238,72	3111,08
239,19	3105,18
239,66	3107,20
240,13	3111,62
240,60	3109,88
241,07	3106,05
241,54	3103,95
242,01	3100,65
242,48	3108,10
242,95	3113,25
243,42	3105,82
243,90	3106,08
244,37	3099,85
244,84	3105,85
245,31	3105,22
245,78	3125,85
246,25	3106,58
246,72	3101,72
247,19	3101,88
247,66	3099,68
248,13	3110,32
248,60	3118,18
249,07	3100,78
249,54	3105,72
250,01	3106,70
250,48	3105,22
250,95	3103,05
251,42	3097,40
251,89	3107,75
252,36	3110,68
252,83	3105,15
253,30	3102,48
253,77	3109,40
254,24	3111,65
254,71	3097,48
255,18	3101,75
255,65	3109,68
256,12	3112,68
256,59	3103,58
257,06	3110,72
257,53	3106,95
258,00	3099,40
258,47	3102,95
258,94	3105,45
259,41	3103,80
259,88	3105,55
260,35	3095,85
260,82	3103,98
261,29	3106,35
261,76	3103,58
262,23	3109,38
262,70	3102,92
263,17	3114,25
263,64	3110,72
264,11	3099,90
264,58	3108,42
265,05	3103,90
265,52	3103,15
265,99	3103,78
266,46	3107,50
266,93	3107,78
267,40	3102,35
267,87	3105,95
268,34	3105,48
268,81	3109,12
269,28	3120,90
269,74	3106,15
270,21	3102,72
270,68	3105,55
271,15	3107,40
271,62	3113,32
272,09	3101,32
272,56	3099,85
273,03	3113,22
273,50	3099,88
273,97	3106,18
274,44	3104,82
274,90	3095,82
275,37	3109,38
275,84	3111,28
276,31	3103,35
276,78	3105,48
277,25	3106,00
277,72	3109,70
278,19	3100,62
278,66	3100,02
279,12	3106,22
279,59	3107,80
280,06	3095,78
280,53	3097,78
281,00	3102,82
281,47	3107,40
281,94	3110,18
282,40	3102,08
282,87	3107,95
283,34	3096,78
283,81	3096,72
284,28	3093,78
284,75	3104,38
285,21	3125,85
285,68	3109,58
286,15	3109,50
286,62	3101,65
287,09	3102,98
287,56	3107,95
288,02	3109,45
288,49	3098,78
288,96	3103,58
289,43	3098,20
289,90	3126,75
290,36	3102,20
290,83	3101,00
291,30	3127,98
291,77	3110,12
292,24	3122,65
292,70	3102,78
293,17	3111,38
293,64	3101,78
294,11	3103,50
294,58	3106,60
295,04	3100,58
295,51	3096,05
295,98	3109,68
296,45	3102,05
296,91	3102,12
297,38	3106,65
297,85	3095,82
298,32	3107,98
298,79	3113,35
299,25	3101,20
299,72	3107,48
300,19	3094,50
300,66	3113,38
301,12	3099,72
301,59	3106,75
302,06	3102,12
302,52	3110,05
302,99	3118,20
303,46	3102,02
303,93	3115,48
304,39	3102,80
304,86	3109,78
305,33	3107,82
305,80	3100,12
306,26	3103,95
306,73	3106,65
307,20	3113,88
307,66	3113,88
308,13	3106,78
308,60	3105,52
309,07	3107,48
309,53	3100,92
310,00	3114,50
310,47	3099,60
310,93	3107,45
311,40	3101,68
311,87	3112,15
312,33	3108,90
312,80	3110,95
313,27	3096,90
313,73	3108,90
314,20	3110,08
314,67	3100,62
315,13	3102,38
315,60	3101,88
316,07	3106,42
316,53	3106,15
317,00	3103,60
317,47	3108,62
317,93	3097,62
318,40	3102,38
318,87	3106,38
319,33	3100,55
319,80	3109,88
320,26	3110,98
320,73	3106,90
321,20	3105,98
321,66	3106,25
322,13	3101,55
322,60	3109,62
323,06	3102,52
323,53	3115,75
323,99	3101,30
324,46	3102,35
324,93	3105,52
325,39	3099,20
325,86	3099,90
326,32	3109,25
326,79	3105,75
327,26	3107,20
327,72	3106,85
328,19	3104,68
328,65	3124,52
329,12	3103,28
329,59	3103,78
330,05	3097,10
330,52	3106,55
330,98	3113,65
331,45	3108,58
331,91	3103,28
332,38	3093,72
332,85	3097,50
333,31	3114,75
333,78	3103,55
334,24	3105,52
334,71	3097,30
335,17	3106,12
335,64	3104,72
336,10	3101,18
336,57	3103,55
337,03	3101,32
337,50	3108,62
337,96	3105,65
338,43	3108,10
338,90	3108,70
339,36	3106,05
339,83	3103,85
340,29	3101,32
340,76	3098,50
341,22	3106,78
341,69	3103,25
342,15	3115,95
342,62	3099,45
343,08	3117,45
343,55	3111,60
344,01	3108,10
344,48	3113,00
344,94	3106,20
345,41	3107,48
345,87	3129,38
346,34	3100,05
346,80	3106,65
347,27	3101,15
347,73	3109,35
348,19	3104,58
348,66	3104,68
349,12	3117,85
349,59	3113,32
350,05	3102,25
350,52	3102,35
350,98	3102,35
351,45	3108,92
351,91	3113,30
352,38	3102,15
352,84	3108,18
353,30	3107,98
353,77	3106,42
354,23	3104,80
354,70	3104,08
355,16	3101,75
355,63	3105,25
356,09	3107,98
356,55	3100,70
357,02	3102,12
357,48	3112,85
357,95	3101,05
358,41	3111,78
358,87	3108,25
359,34	3099,18
359,80	3108,35
360,27	3108,75
360,73	3106,45
361,19	3101,35
361,66	3107,62
362,12	3117,10
362,59	3109,05
363,05	3106,08
363,51	3104,45
363,98	3109,90
364,44	3108,58
364,91	3107,68
365,37	3107,90
365,83	3117,32
366,30	3101,62
366,76	3117,22
367,22	3101,15
367,69	3121,12
368,15	3110,20
368,61	3097,22
369,08	3098,50
369,54	3101,28
370,00	3106,12
370,47	3111,20
370,93	3113,32
371,39	3100,48
371,86	3104,70
372,32	3103,50
372,78	3104,52
373,25	3106,12
373,71	3123,18
374,17	3106,95
374,64	3101,45
375,10	3106,25
375,56	3102,55
376,03	3098,55
376,49	3108,05
376,95	3103,55
377,42	3105,62
377,88	3097,18
378,34	3099,32
378,80	3110,20
379,27	3098,70
379,73	3109,95
380,19	3106,08
380,66	3102,32
381,12	3103,05
381,58	3106,15
382,04	3101,55
382,51	3096,65
382,97	3105,80
383,43	3106,75
383,89	3098,45
384,36	3099,82
384,82	3107,75
385,28	3096,55
385,74	3113,65
386,21	3101,80
386,67	3097,50
387,13	3099,65
387,59	3106,48
388,06	3105,52
388,52	3106,25
388,98	3104,82
389,44	3103,98
389,91	3106,88
390,37	3117,42
390,83	3106,08
391,29	3113,65
391,75	3113,65
392,22	3098,55
392,68	3103,80
393,14	3103,50
393,60	3113,68
394,06	3106,30
394,53	3139,80
394,99	3107,08
395,45	3106,80
395,91	3103,92
396,37	3115,65
396,84	3102,85
397,30	3098,08
397,76	3112,02
398,22	3107,75
398,68	3112,12
399,14	3102,12
399,61	3109,38
400,07	3107,15
400,53	3110,30
400,99	3106,82
401,45	3108,58
401,91	3107,18
402,38	3104,02
402,84	3103,30
403,30	3120,20
403,76	3106,98
404,22	3114,82
404,68	3102,72
405,14	3108,15
405,61	3137,18
406,07	3101,30
406,53	3109,42
406,99	3112,35
407,45	3102,72
407,91	3106,00
408,37	3104,88
408,83	3099,45
409,29	3113,08
409,76	3100,60
410,22	3106,15
410,68	3104,25
411,14	3111,02
411,60	3107,50
412,06	3108,60
412,52	3101,68
412,98	3115,75
413,44	3110,42
413,90	3114,02
414,36	3119,05
414,83	3115,10
415,29	3100,95
415,75	3112,98
416,21	3110,60
416,67	3123,48
417,13	3107,85
417,59	3109,05
418,05	3109,98
418,51	3101,38
418,97	3117,02
419,43	3102,20
419,89	3116,12
420,35	3103,10
420,81	3116,70
421,27	3102,72
421,73	3100,58
422,19	3115,25
422,65	3104,22
423,11	3109,62
423,57	3111,85
424,03	3116,50
424,49	3107,90
424,96	3118,42
425,42	3109,88
425,88	3110,62
426,34	3122,00
426,80	3109,12
427,26	3109,22
427,72	3110,08
428,18	3107,40
428,64	3112,02
429,10	3102,48
429,56	3117,48
430,02	3101,25
430,47	3111,45
430,93	3105,85
431,39	3111,22
431,85	3105,82
432,31	3107,65
432,77	3112,60
433,23	3118,10
433,69	3107,65
434,15	3113,80
434,61	3108,30
435,07	3117,20
435,53	3108,65
435,99	3117,65
436,45	3115,35
436,91	3114,65
437,37	3105,20
437,83	3115,65
438,29	3113,75
438,75	3111,60
439,21	3111,60
439,67	3131,50
440,12	3105,22
440,58	3109,82
441,04	3121,60
441,50	3118,62
441,96	3109,85
442,42	3104,88
442,88	3115,62
443,34	3108,35
443,80	3115,05
444,26	3107,40
444,72	3114,98
445,17	3112,42
445,63	3107,30
446,09	3119,95
446,55	3117,38
447,01	3114,62
447,47	3113,05
447,93	3112,05
448,39	3141,25
448,85	3119,15
449,30	3120,40
449,76	3124,75
450,22	3113,60
450,68	3114,72
451,14	3138,70
451,60	3111,35
452,06	3121,80
452,51	3123,22
452,97	3117,72
453,43	3135,15
453,89	3126,08
454,35	3126,55
454,81	3127,20
455,26	3130,35
455,72	3130,15
456,18	3133,30
456,64	3131,65
457,10	3131,98
457,56	3141,55
458,01	3142,65
458,47	3143,35
458,93	3140,12
459,39	3143,35
459,85	3147,70
460,30	3155,68
460,76	3162,40
461,22	3157,42
461,68	3171,25
462,14	3169,75
462,59	3174,00
463,05	3174,82
463,51	3185,88
463,97	3187,10
464,43	3194,85
464,88	3206,42
465,34	3204,70
465,80	3224,00
466,26	3222,40
466,71	3233,30
467,17	3233,38
467,63	3250,42
468,09	3262,92
468,54	3275,78
469,00	3284,78
469,46	3297,35
469,92	3325,02
470,37	3339,08
470,83	3341,52
471,29	3356,48
471,75	3388,00
472,20	3397,05
472,66	3425,40
473,12	3447,12
473,58	3466,78
474,03	3492,52
474,49	3527,52
474,95	3555,58
475,40	3593,15
475,86	3628,40
476,32	3667,80
476,78	3709,00
477,23	3756,98
477,69	3798,08
478,15	3839,40
478,60	3902,82
479,06	3952,62
479,52	4011,35
479,97	4074,75
480,43	4134,92
480,89	4202,65
481,34	4281,05
481,80	4369,65
482,26	4442,90
482,71	4530,62
483,17	4632,42
483,63	4721,22
484,08	4844,90
484,54	4956,55
485,00	5090,25
485,45	5216,60
485,91	5364,60
486,37	5541,38
486,82	5703,82
487,28	5870,52
487,74	6053,00
488,19	6264,82
488,65	6462,00
489,10	6669,65
489,56	6891,92
490,02	7138,58
490,47	7384,30
490,93	7642,98
491,39	7920,65
491,84	8209,95
492,30	8526,50
492,75	8862,38
493,21	9208,15
493,67	9568,60
494,12	9972,55
494,58	10403,15
495,03	10831,45
495,49	11329,38
495,95	11828,68
496,40	12370,35
496,86	12954,80
497,31	13588,38
497,77	14235,48
498,23	14893,82
498,68	15604,80
499,14	16341,72
499,59	17089,15
500,05	17895,42
500,50	18731,08
500,96	19568,42
501,41	20424,22
501,87	21350,90
502,33	22261,32
502,78	23194,72
503,24	24204,48
503,69	25201,45
504,15	26314,72
504,60	27352,72
505,06	28496,60
505,51	29650,08
505,97	30823,12
506,42	32072,90
506,88	33340,45
507,33	34603,15
507,79	35902,25
508,24	37204,12
508,70	38505,65
509,15	39777,80
509,61	41073,40
510,06	42318,08
510,52	43484,75
510,97	44588,65
511,43	45638,85
511,88	46654,78
512,34	47601,95
512,79	48470,90
513,25	49266,25
513,70	49949,68
514,16	50593,92
514,61	51158,85
515,07	51648,25
515,52	52076,12
515,98	52432,95
516,43	52711,72
516,89	52925,45
517,34	53112,28
517,80	53207,25
518,25	53226,95
518,70	53217,20
519,16	53097,50
519,61	52926,08
520,07	52668,28
520,52	52323,90
520,98	51911,98
521,43	51438,42
521,89	50824,42
522,34	50157,08
522,79	49410,45
523,25	48569,00
523,70	47758,18
524,16	46818,42
524,61	45881,60
525,06	44875,78
525,52	43940,50
525,97	42838,15
526,43	41890,45
526,88	40888,20
527,33	39943,98
527,79	38968,45
528,24	38110,45
528,70	37234,12
529,15	36413,42
529,60	35588,15
530,06	34792,10
530,51	34056,05
530,97	33324,38
531,42	32666,72
531,87	31993,62
532,33	31397,62
532,78	30775,30
533,23	30126,92
533,69	29521,35
534,14	28938,10
534,59	28345,52
535,05	27744,85
535,50	27153,75
535,96	26582,70
536,41	26018,42
536,86	25401,10
537,32	24852,95
537,77	24283,65
538,22	23710,55
538,68	23153,98
539,13	22639,35
539,58	22118,18
540,03	21584,85
540,49	21085,82
540,94	20605,48
541,39	20125,30
541,85	19685,90
542,30	19238,25
542,75	18807,05
543,21	18403,30
543,66	17994,45
544,11	17607,40
544,57	17226,10
545,02	16859,10
545,47	16494,90
545,92	16103,95
546,38	15769,52
546,83	15383,30
547,28	15081,82
547,73	14662,55
548,19	14336,28
548,64	13974,30
549,09	13631,78
549,55	13311,68
550,00	12980,55
550,45	12648,30
550,90	12335,75
551,36	12021,00
551,81	11738,42
552,26	11447,65
552,71	11153,90
553,17	10880,60
553,62	10634,22
554,07	10372,40
554,52	10158,02
554,97	9952,08
555,43	9724,15
555,88	9522,62
556,33	9337,22
556,78	9152,10
557,24	9001,08
557,69	8821,62
558,14	8646,95
558,59	8503,65
559,04	8358,50
559,50	8218,25
559,95	8076,75
560,40	7950,15
560,85	7810,25
561,30	7664,32
561,76	7531,20
562,21	7405,40
562,66	7287,25
563,11	7172,72
563,56	7047,88
564,01	6932,40
564,47	6790,52
564,92	6681,22
565,37	6594,00
565,82	6477,95
566,27	6355,25
566,72	6251,12
567,18	6148,42
567,63	6036,62
568,08	5953,88
568,53	5855,35
568,98	5776,82
569,43	5687,45
569,88	5598,65
570,34	5532,92
570,79	5456,15
571,24	5365,60
571,69	5306,00
572,14	5239,92
572,59	5167,95
573,04	5123,15
573,49	5072,98
573,94	4996,80
574,40	4936,60
574,85	4888,85
575,30	4839,72
575,75	4788,48
576,20	4735,48
576,65	4697,18
577,10	4640,45
577,55	4582,68
578,00	4546,35
578,45	4504,25
578,91	4464,58
579,36	4420,02
579,81	4383,10
580,26	4331,02
580,71	4288,75
581,16	4264,20
581,61	4227,22
582,06	4189,18
582,51	4142,68
582,96	4119,52
583,41	4080,08
583,86	4062,62
584,31	4024,85
584,76	3995,62
585,21	3964,42
585,66	3947,28
586,11	3915,75
586,56	3893,05
587,01	3877,32
587,46	3856,68
587,92	3836,40
588,37	3809,52
588,82	3790,32
589,27	3771,42
589,72	3746,68
590,17	3736,88
590,62	3722,48
591,07	3699,95
591,52	3691,25
591,97	3663,08
592,42	3673,55
592,87	3636,92
593,32	3623,12
593,77	3603,28
594,22	3599,75
594,67	3590,45
595,12	3562,28
595,56	3557,30
596,01	3549,05
596,46	3523,12
596,91	3519,15
597,36	3508,15
597,81	3487,85
598,26	3474,42
598,71	3479,82
599,16	3456,08
599,61	3451,22
600,06	3437,50
600,51	3435,68
600,96	3416,78
601,41	3408,90
601,86	3405,72
602,31	3384,55
602,76	3378,25
603,21	3387,52
603,66	3372,98
604,11	3371,55
604,55	3357,65
605,00	3342,08
605,45	3343,15
605,90	3346,60
606,35	3328,18
606,80	3328,82
607,25	3324,10
607,70	3315,52
608,15	3315,42
608,60	3297,12
609,04	3317,80
609,49	3291,12
609,94	3290,05
610,39	3277,65
610,84	3273,10
611,29	3278,25
611,74	3269,15
612,19	3271,68
612,64	3264,35
613,08	3248,90
613,53	3255,25
613,98	3250,70
614,43	3247,02
614,88	3245,90
615,33	3240,78
615,78	3252,75
616,22	3237,12
616,67	3226,52
617,12	3219,42
617,57	3223,80
618,02	3211,25
618,47	3229,08
618,91	3216,40
619,36	3210,75
619,81	3226,78
620,26	3197,52
620,71	3194,45
621,16	3191,88
621,60	3190,95
622,05	3194,75
622,50	3195,58
622,95	3187,95
623,40	3188,85
623,84	3187,25
624,29	3190,20
624,74	3182,10
625,19	3181,22
625,64	3178,40
626,08	3187,20
626,53	3178,60
626,98	3182,88
627,43	3187,55
627,87	3175,62
628,32	3179,92
628,77	3182,00
629,22	3178,55
629,66	3168,68
630,11	3167,62
630,56	3175,75
631,01	3163,65
631,46	3164,20
631,90	3167,92
632,35	3161,98
632,80	3163,82
633,25	3164,88
633,69	3158,20
634,14	3167,42
634,59	3161,68
635,03	3151,80
635,48	3159,45
635,93	3159,22
636,38	3152,02
636,82	3161,95
637,27	3154,85
637,72	3159,88
638,16	3157,48
638,61	3163,48
639,06	3152,75
639,51	3148,72
639,95	3147,50
640,40	3153,22
640,85	3146,70
641,29	3151,72
641,74	3148,70
642,19	3141,00
642,63	3149,08
643,08	3147,15
643,53	3141,70
643,97	3149,18
644,42	3148,38
644,87	3139,98
645,31	3142,65
645,76	3134,88
646,21	3132,45
646,65	3141,82
647,10	3142,20
647,55	3127,15
647,99	3131,25
648,44	3131,98
648,89	3124,68
649,33	3129,52
649,78	3136,40
650,23	3126,88
650,67	3122,55
651,12	3127,68
651,56	3120,45
652,01	3128,80
652,46	3130,30
652,90	3128,10
653,35	3133,90
653,80	3130,50
654,24	3125,95
654,69	3120,18
655,13	3133,95
655,58	3127,25
656,03	3154,45
656,47	3119,65
656,92	3116,65
657,36	3118,92
657,81	3121,72
658,26	3117,98
658,70	3120,55
659,15	3118,65
659,59	3116,00
660,04	3122,15
660,48	3124,68
660,93	3118,05
661,38	3116,58
661,82	3121,62
662,27	3116,40
662,71	3118,38
663,16	3124,42
663,60	3123,98
664,05	3112,55
664,49	3118,25
664,94	3112,88
665,38	3145,95
665,83	3113,58
666,28	3126,12
666,72	3117,32
667,17	3111,88
667,61	3117,15
668,06	3110,38
668,50	3107,78
668,95	3118,05
669,39	3115,35
669,84	3112,92
670,28	3116,25
670,73	3110,48
671,17	3115,58
671,62	3111,75
672,06	3116,65
672,51	3119,50
672,95	3133,38
673,40	3125,60
673,84	3108,70
674,29	3118,40
674,73	3108,90
675,18	3130,82
675,62	3102,32
676,07	3111,00
676,51	3121,52
676,95	3113,52
677,40	3123,88
677,84	3128,22
678,29	3115,40
678,73	3113,42
679,18	3122,70
679,62	3135,82
680,07	3114,55
680,51	3117,30
680,96	3104,68
681,40	3107,68
681,84	3110,38
682,29	3112,58
682,73	3112,25
683,18	3110,40
683,62	3132,32
684,07	3108,78
684,51	3110,90
684,95	3116,42
685,40	3110,30
685,84	3112,68
686,29	3112,58
686,73	3100,55
687,17	3104,30
687,62	3109,55
688,06	3113,72
688,51	3118,05
688,95	3114,80
689,39	3114,88
689,84	3120,08
690,28	3115,90
690,73	3115,12
691,17	3116,62
691,61	3112,22
692,06	3108,38
692,50	3118,92
692,94	3111,82
693,39	3118,08
693,83	3115,82
694,27	3134,78
694,72	3117,72
695,16	3103,25
695,60	3110,35
696,05	3109,55
696,49	3105,98
696,94	3113,22
697,38	3105,68
697,82	3110,65
698,27	3111,48
698,71	3115,12
699,15	3114,30
699,59	3110,40
700,04	3112,88
700,48	3139,50
700,92	3112,52
701,37	3110,68
701,81	3126,60
702,25	3111,05
702,70	3109,15
703,14	3113,00
703,58	3106,70
704,03	3117,88
704,47	3115,90
704,91	3108,70
705,35	3107,50
705,80	3116,48
706,24	3116,82
706,68	3137,18
707,13	3104,50
707,57	3119,30
708,01	3106,90
708,45	3109,28
708,90	3112,08
709,34	3111,68
709,78	3111,00
710,22	3120,22
710,67	3117,20
711,11	3115,68
711,55	3105,85
711,99	3115,75
712,44	3110,95
712,88	3107,85
713,32	3115,95
713,76	3114,22
714,21	3113,75
714,65	3106,15
715,09	3111,35
715,53	3112,48
715,97	3107,20
716,42	3115,70
716,86	3112,35
717,30	3112,98
717,74	3107,38
718,18	3125,20
718,63	3109,20
719,07	3112,30
719,51	3120,82
719,95	3116,82
720,39	3110,78
720,84	3112,95
721,28	3106,02
721,72	3109,08
722,16	3103,72
722,60	3102,38
723,04	3115,55
723,49	3122,85
723,93	3105,52
724,37	3103,55
724,81	3110,82
725,25	3109,72
725,69	3105,68
726,14	3112,60
726,58	3108,00
727,02	3110,70
727,46	3107,80
727,90	3102,75
728,34	3102,95
728,78	3110,50
729,23	3101,78
729,67	3114,38
730,11	3100,88
730,55	3108,02
730,99	3108,00
731,43	3110,28
731,87	3121,50
732,31	3106,20
732,76	3118,42
733,20	3113,92
733,64	3108,28
734,08	3115,22
734,52	3105,65
734,96	3114,12
735,40	3102,92
735,84	3108,72
736,28	3113,35
736,72	3110,60
737,16	3111,58
737,61	3103,25
738,05	3112,72
738,49	3112,15
738,93	3104,30
739,37	3113,55
739,81	3112,95
740,25	3109,48
740,69	3125,70
741,13	3105,72
741,57	3110,22
742,01	3115,72
742,45	3112,88
742,89	3108,15
743,33	3105,82
743,77	3109,50
744,21	3104,28
744,65	3114,58
745,09	3109,65
745,53	3104,12
745,98	3111,78
746,42	3110,68
746,86	3109,25
747,30	3108,55
747,74	3102,65
748,18	3101,40
748,62	3108,05
749,06	3115,60
749,50	3114,72
749,94	3110,08
750,38	3112,75
750,82	3119,25
751,26	3097,12
751,70	3101,48
752,14	3099,32
752,58	3110,10
753,02	3106,98
753,45	3103,50
753,89	3110,65
754,33	3125,52
754,77	3107,48
755,21	3105,02
755,65	3099,42
756,09	3104,55
756,53	3103,48
756,97	3105,20
757,41	3118,90
757,85	3103,20
758,29	3105,98
758,73	3099,20
759,17	3103,72
759,61	3099,02
760,05	3105,65
760,49	3108,35
760,93	3114,40
761,37	3105,08
761,80	3115,22
762,24	3107,12
762,68	3106,55
763,12	3105,62
763,56	3106,58
764,00	3098,95
764,44	3103,58
764,88	3110,92
765,32	3103,18
765,76	3109,72
766,20	3115,58
766,63	3105,00
767,07	3098,45
767,51	3106,62
767,95	3111,08
768,39	3105,50
768,83	3096,88
769,27	3103,88
769,71	3108,98
770,14	3102,12
770,58	3099,92
771,02	3101,25
771,46	3104,62
771,90	3107,70
772,34	3108,50
772,78	3110,55
773,21	3105,18
773,65	3117,15
774,09	3100,28
774,53	3107,82
774,97	3100,68
775,41	3099,55
775,84	3106,30
776,28	3105,80
776,72	3107,30
777,16	3097,30
777,60	3103,88
778,04	3103,90
778,47	3094,78
778,91	3102,85
779,35	3097,82
779,79	3108,75
780,23	3108,00
780,66	3098,15
781,10	3100,92
781,54	3102,15
781,98	3110,28
782,42	3107,52
782,85	3103,08
783,29	3107,55
783,73	3122,20
784,17	3113,52
784,61	3106,30
785,04	3109,55
785,48	3109,05
785,92	3099,85
786,36	3106,62
786,79	3098,60
787,23	3102,50
787,67	3111,58
788,11	3109,92
788,54	3105,62
788,98	3101,80
789,42	3102,78
789,86	3100,20
790,29	3107,98
790,73	3107,65
791,17	3114,28
791,60	3098,75
792,04	3101,72
792,48	3106,22
792,92	3099,92
793,35	3100,92
793,79	3100,52
794,23	3105,25
794,67	3099,25
795,10	3098,15
795,54	3111,20
795,98	3101,50
796,41	3102,90
796,85	3100,48
797,29	3131,75
797,72	3111,05
798,16	3105,62
798,60	3105,70
799,03	3103,92
799,47	3097,48
799,91	3104,42
800,34	3102,10
800,78	3104,40
801,22	3100,95
801,65	3095,40
802,09	3101,35
802,53	3111,05
802,96	3104,82
803,40	3097,18
803,84	3114,95
804,27	3105,78
804,71	3099,45
805,15	3105,38
805,58	3104,50
806,02	3097,72
806,46	3109,08
806,89	3117,80
807,33	3106,95
807,76	3107,72
808,20	3102,38
808,64	3102,50
809,07	3114,58
809,51	3116,55
809,95	3116,18
810,38	3108,58
810,82	3118,82
811,25	3099,55
811,69	3103,88
812,13	3098,20
812,56	3104,45
813,00	3100,75
813,43	3100,20
813,87	3097,02
814,30	3106,62
814,74	3109,02
815,18	3125,45
815,61	3103,32
816,05	3099,30
816,48	3106,30
816,92	3117,72
817,35	3109,15
817,79	3104,90
818,23	3107,52
818,66	3106,05
819,10	3104,10
819,53	3099,00
819,97	3099,20
820,40	3099,65
820,84	3109,78
821,27	3103,52
821,71	3110,45
822,14	3100,00
822,58	3106,25
823,01	3110,18
823,45	3101,70
823,88	3103,75
824,32	3099,75
824,75	3103,95
825,19	3098,75
825,63	3111,12
826,06	3099,22
826,50	3102,40
826,93	3102,20
827,37	3099,92
827,80	3103,42
828,23	3098,68
828,67	3105,88
829,10	3105,25
829,54	3096,22
829,97	3097,05
830,41	3091,18
830,84	3102,18
831,28	3103,40
831,71	3111,35
832,15	3096,98
832,58	3107,02
833,02	3103,50
833,45	3097,02
833,89	3113,52
834,32	3100,35
834,75	3119,00
835,19	3107,22
835,62	3105,42
836,06	3094,48
836,49	3099,95
836,93	3098,70
837,36	3107,30
837,79	3105,25
838,23	3098,42
838,66	3096,28
839,10	3107,90
839,53	3098,58
839,97	3102,88
840,40	3099,10
840,83	3108,30
841,27	3095,28
841,70	3098,60
842,14	3105,20
842,57	3099,15
843,00	3111,92
843,44	3116,00
843,87	3101,00
844,31	3107,92
844,74	3091,98
845,17	3097,82
845,61	3096,72
846,04	3100,75
846,47	3104,70
846,91	3103,38
847,34	3104,30
847,77	3101,10
848,21	3098,28
848,64	3104,88
849,08	3099,60
849,51	3107,18
849,94	3098,65
850,38	3097,38
850,81	3100,70
851,24	3095,00
851,68	3098,58
852,11	3098,75
852,54	3104,08
852,98	3109,05
853,41	3105,42
853,84	3097,78
854,28	3108,75
854,71	3095,98
855,14	3105,28
855,57	3106,12
856,01	3099,20
856,44	3098,72
856,87	3104,18
857,31	3094,30
857,74	3104,75
858,17	3094,38
858,61	3098,58
859,04	3106,35
859,47	3109,28
859,90	3101,62
860,34	3104,78
860,77	3100,40
861,20	3094,38
861,63	3106,40
862,07	3091,20
862,50	3095,60
862,93	3097,92
863,37	3100,20
863,80	3102,08
864,23	3103,92
864,66	3098,45
865,10	3099,95
865,53	3103,88
865,96	3094,92
866,39	3097,55
866,82	3104,35
867,26	3093,95
867,69	3100,35
868,12	3098,45
868,55	3092,28
868,99	3098,05
869,42	3090,70
869,85	3105,62
870,28	3094,68
870,71	3101,62
871,15	3098,62
871,58	3097,25
872,01	3101,88
872,44	3102,40
872,87	3107,15
873,31	3117,18
873,74	3094,60
874,17	3099,88
874,60	3100,52
875,03	3098,10
875,47	3101,62
875,90	3100,38
876,33	3098,95
876,76	3106,58
877,19	3101,98
877,62	3097,68
878,06	3094,95
878,49	3107,68
878,92	3090,22
879,35	3102,40
879,78	3100,58
880,21	3101,15
880,64	3100,55
881,08	3098,85
881,51	3103,02
881,94	3097,40
882,37	3113,18
882,80	3094,00
883,23	3095,20
883,66	3098,28
884,09	3099,32
884,53	3103,58
884,96	3096,65
885,39	3095,65
885,82	3098,82
886,25	3096,50
886,68	3094,80
887,11	3102,20
887,54	3100,02
887,97	3103,75
888,40	3104,12
888,84	3096,48
889,27	3093,18
889,70	3109,70
890,13	3094,05
890,56	3095,50
890,99	3096,45
891,42	3094,18
891,85	3121,88
892,28	3092,62
892,71	3106,10
893,14	3097,22
893,57	3100,02
894,00	3102,28
894,43	3092,28
894,86	3096,32
895,29	3097,82
895,73	3092,20
896,16	3095,72
896,59	3099,20
897,02	3096,32
897,45	3102,60
897,88	3098,85
898,31	3093,45
898,74	3097,02
899,17	3103,32
899,60	3092,45
900,03	3094,15
900,46	3093,42
900,89	3100,82
901,32	3105,75
901,75	3095,65
902,18	3095,18
902,61	3095,68
903,04	3103,32
903,47	3102,75
903,90	3097,18
904,33	3112,68
904,76	3113,92
905,19	3096,08
905,62	3094,88
906,05	3108,05
906,48	3095,52
906,91	3101,35
907,34	3092,80
907,76	3097,05
908,19	3092,30
908,62	3105,72
909,05	3098,25
909,48	3104,78
909,91	3101,70
910,34	3098,08
910,77	3099,92
911,20	3107,52
911,63	3094,28
912,06	3090,42
912,49	3099,72
912,92	3099,30
913,35	3094,88
913,78	3092,02
914,21	3097,70
914,63	3099,38
915,06	3096,72
915,49	3100,38
915,92	3099,80
916,35	3095,28
916,78	3092,40
917,21	3091,52
917,64	3094,78
918,07	3095,12
918,50	3103,70
918,92	3093,58
919,35	3106,72
919,78	3095,80
920,21	3101,68
920,64	3093,15
921,07	3096,10
921,50	3096,58
921,93	3102,65
922,35	3101,90
922,78	3099,45
923,21	3107,42
923,64	3100,78
924,07	3092,65
924,50	3092,55
924,92	3090,72
925,35	3099,35
925,78	3107,72
926,21	3099,25
926,64	3088,05
927,07	3102,10
927,49	3091,62
927,92	3101,95
928,35	3111,68
928,78	3094,55
929,21	3102,35
929,64	3092,50
930,06	3113,05
930,49	3099,55
930,92	3089,35
931,35	3102,95
931,78	3097,28
932,20	3101,22
932,63	3102,60
933,06	3092,92
933,49	3098,48
933,92	3088,52
934,34	3107,65
934,77	3106,42
935,20	3115,00
935,63	3094,22
936,05	3105,32
936,48	3101,65
936,91	3102,65
937,34	3100,95
937,76	3090,85
938,19	3095,78
938,62	3093,42
939,05	3100,05
939,47	3092,58
939,90	3101,12
940,33	3094,15
940,76	3096,38
941,18	3101,18
941,61	3091,68
942,04	3095,30
942,47	3106,30
942,89	3111,82
943,32	3093,35
943,75	3105,15
944,17	3092,98
944,60	3093,58
945,03	3102,15
945,46	3091,20
945,88	3090,58
946,31	3102,70
946,74	3093,55
947,16	3099,95
947,59	3098,92
948,02	3096,98
948,44	3097,60
948,87	3103,28
949,30	3094,22
949,72	3097,12
950,15	3101,08
950,58	3090,60
951,00	3091,08
951,43	3091,85
951,86	3113,68
952,28	3106,90
952,71	3092,15
953,14	3096,60
953,56	3100,10
953,99	3089,05
954,42	3102,25
954,84	3095,38
955,27	3110,08
955,70	3091,05
956,12	3094,52
956,55	3093,98
956,98	3093,48
957,40	3095,72
957,83	3099,18
958,25	3089,88
958,68	3102,68
959,11	3116,60
959,53	3091,32
959,96	3100,48
960,38	3097,90
960,81	3093,10
961,24	3094,35
961,66	3093,18
962,09	3086,98
962,51	3093,68
962,94	3102,05
963,37	3099,22
963,79	3102,82
964,22	3101,32
964,64	3096,02
965,07	3095,88
965,49	3096,62
965,92	3096,92
966,35	3094,28
966,77	3094,72
967,20	3104,52
967,62	3094,80
968,05	3094,92
968,47	3100,20
968,90	3092,28
969,32	3093,20
969,75	3107,20
970,17	3124,78
970,60	3100,18
971,03	3096,60
971,45	3098,78
971,88	3090,40
972,30	3093,80
972,73	3099,32
973,15	3094,10
973,58	3097,00
974,00	3090,42
974,43	3092,42
974,85	3094,45
975,28	3101,78
975,70	3096,32
976,13	3099,82
976,55	3098,45
976,98	3093,78
977,40	3091,42
977,83	3092,70
978,25	3096,75
978,68	3091,20
979,10	3102,65
979,53	3098,30
979,95	3096,08
980,37	3095,02
980,80	3093,65
981,22	3103,10
981,65	3101,15
982,07	3093,05
982,50	3101,05
982,92	3102,22
983,35	3095,20
983,77	3095,35
984,20	3092,10
984,62	3095,35
985,04	3092,70
985,47	3103,52
985,89	3101,98
986,32	3090,60
986,74	3089,40
987,17	3094,72
987,59	3100,22
988,01	3092,50
988,44	3094,00
988,86	3098,75
989,29	3094,78
989,71	3095,98
990,13	3094,42
990,56	3098,02
990,98	3096,42
991,41	3092,58
991,83	3096,62
992,25	3095,50
992,68	3098,92
993,10	3106,15
993,53	3093,65
993,95	3091,65
994,37	3095,55
994,80	3095,22
995,22	3094,15
995,64	3098,12
996,07	3100,85
996,49	3099,05
996,91	3097,42
997,34	3086,70
997,76	3089,58
998,18	3084,82
998,61	3103,30
999,03	3100,28
999,45	3095,12
999,88	3098,28
1000,30	3092,55
1000,72	3104,72
1001,15	3096,90
1001,57	3097,05
1001,99	3106,50
1002,42	3092,50
1002,84	3097,42
1003,26	3099,32
1003,69	3096,32
1004,11	3098,02
1004,53	3094,30
1004,96	3101,48
1005,38	3091,90
1005,80	3097,65
1006,22	3097,22
1006,65	3106,98
1007,07	3094,68
1007,49	3091,85
1007,92	3100,15
1008,34	3094,82
1008,76	3091,30
1009,18	3089,40
1009,61	3097,72
1010,03	3092,35
1010,45	3119,52
1010,87	3104,22
1011,30	3102,42
1011,72	3100,45
1012,14	3098,58
1012,56	3101,65
1012,99	3096,35
1013,41	3099,90
1013,83	3099,02
1014,25	3099,00
1014,68	3097,92
1015,10	3094,15
1015,52	3103,65
1015,94	3087,38
1016,37	3102,58
1016,79	3091,05
1017,21	3096,32
1017,63	3088,95
1018,05	3101,00
1018,48	3094,70
1018,90	3093,62
1019,32	3096,18
1019,74	3087,95
1020,16	3117,08
1020,59	3104,22
1021,01	3099,38
1021,43	3095,80
1021,85	3094,90
1022,27	3096,55
1022,69	3096,20
1023,12	3101,22
1023,54	3094,12
1023,96	3122,28
1024,38	3103,12
1024,80	3099,95
1025,22	3102,12
1025,65	3097,80
1026,07	3099,00
1026,49	3102,50
1026,91	3095,40
1027,33	3092,72
1027,75	3112,42
1028,17	3102,15
1028,60	3098,72
1029,02	3094,72
1029,44	3099,05
1029,86	3094,75
1030,28	3111,35
1030,70	3098,15
1031,12	3096,08
1031,54	3099,02
1031,97	3105,82
1032,39	3090,92
1032,81	3096,95
1033,23	3101,20
1033,65	3095,25
1034,07	3104,20
1034,49	3092,42
1034,91	3093,08
1035,33	3099,60
1035,75	3102,05
1036,18	3092,15
1036,60	3108,78
1037,02	3096,32
1037,44	3092,95
1037,86	3096,92
1038,28	3089,95
1038,70	3101,05
1039,12	3103,50
1039,54	3100,95
1039,96	3105,85
1040,38	3106,02
1040,80	3095,62
1041,22	3095,82
1041,64	3097,12
1042,06	3095,28
1042,48	3104,62
1042,90	3107,08
1043,32	3101,78
1043,74	3101,80
1044,17	3096,62
1044,59	3102,78
1045,01	3091,52
1045,43	3096,60
1045,85	3092,20
1046,27	3090,98
1046,69	3098,75
1047,11	3099,28
1047,53	3092,62
1047,95	3100,35
1048,37	3102,55
1048,79	3093,85
1049,21	3101,20
1049,63	3099,98
1050,05	3102,78
1050,47	3093,25
1050,89	3097,98
1051,31	3098,68
1051,72	3101,18
1052,14	3103,20
1052,56	3104,28
1052,98	3096,55
1053,40	3104,00
1053,82	3085,32
1054,24	3098,80
1054,66	3087,95
1055,08	3097,55
1055,50	3092,42
1055,92	3098,45
1056,34	3101,92
1056,76	3110,28
1057,18	3105,00
1057,60	3101,38
1058,02	3098,15
1058,44	3125,12
1058,86	3093,32
1059,28	3101,30
1059,69	3102,60
1060,11	3095,65
1060,53	3097,50
1060,95	3094,62
1061,37	3106,62
1061,79	3098,60
1062,21	3096,78
1062,63	3103,85
1063,05	3108,45
1063,47	3096,82
1063,88	3097,10
1064,30	3093,60
1064,72	3105,70
1065,14	3101,70
1065,56	3096,12
1065,98	3093,85
1066,40	3089,02
1066,82	3102,72
1067,23	3099,70
1067,65	3096,48
1068,07	3098,70
1068,49	3094,85
1068,91	3111,80
1069,33	3098,68
1069,75	3093,05
1070,16	3090,68
1070,58	3102,25
1071,00	3104,15
1071,42	3101,42
1071,84	3097,00
1072,26	3100,10
1072,67	3094,60
1073,09	3093,52
1073,51	3090,80
1073,93	3102,45
1074,35	3094,15
1074,77	3090,95
1075,18	3094,28
1075,60	3095,08
1076,02	3098,18
1076,44	3091,28
1076,86	3093,68
1077,27	3096,18
1077,69	3103,75
1078,11	3095,10
1078,53	3100,02
1078,94	3108,90
1079,36	3088,38
1079,78	3097,10
1080,20	3097,18
1080,62	3096,00
1081,03	3099,20
1081,45	3096,28
1081,87	3094,75
1082,29	3098,95
1082,70	3096,02
1083,12	3097,95
1083,54	3097,15
1083,96	3097,40
1084,37	3103,72
1084,79	3095,55
1085,21	3095,48
1085,63	3101,20
1086,04	3091,52
1086,46	3094,05
1086,88	3098,60
1087,30	3087,98
1087,71	3103,22
1088,13	3431,05
1088,55	3094,80
1088,96	3091,55
1089,38	3097,98
1089,80	3094,60
1090,22	3105,10
1090,63	3097,68
1091,05	3090,88
1091,47	3100,35
1091,88	3095,00
1092,30	3092,82
1092,72	3096,50
1093,13	3094,15
1093,55	3096,12
1093,97	3095,42
1094,38	3098,20
1094,80	3094,08
1095,22	3098,28
1095,63	3092,02
1096,05	3095,98
1096,47	3099,25
1096,88	3088,72
1097,30	3097,90
1097,72	3092,78
1098,13	3101,08
1098,55	3100,42
1098,97	3101,55
1099,38	3094,42
1099,80	3095,10
1100,21	3094,30
1100,63	3094,85
1101,05	3093,25
1101,46	3098,18
1101,88	3090,55
1102,30	3092,38
1102,71	3096,15
1103,13	3095,98
1103,54	3098,02
1103,96	3092,38
1104,38	3108,02
1104,79	3085,85
1105,21	3094,72
1105,62	3097,22
1106,04	3091,25
1106,46	3094,38
1106,87	3083,52
1107,29	3089,18
1107,70	3101,78
1108,12	3088,82
1108,54	3097,10
1108,95	3096,40
1109,37	3095,58
1109,78	3084,18
1110,20	3094,32
1110,61	3087,62
1111,03	3087,62
1111,44	3087,62
1111,86	3087,62
1112,28	3087,62
1112,69	3087,62
1113,11	3087,62
1113,52	3087,62
1113,94	3087,62
1114,35	3087,62
1114,77	3087,62
1115,18	3087,62
1115,60	3087,62
1116,01	3087,62
1116,43	3087,62
1116,84	3087,62
1117,26	3087,62
1117,67	3087,62
1118,09	3087,62
1118,50	3087,62
1118,92	3087,62
>>>>>End Processed Spectral Data<<<<<
