SpectraSuite Data File
++++++++++++++++++++++++++++++++++++
Date: Tue Jul 12 15:47:35 EEST 2011
User: OO Maya
Dark Spectrum Present: No
Reference Spectrum Present: No
Number of Sampled Component Spectra: 1
Spectrometers: MAYP11278
Integration Time (usec): 15000 (MAYP11278)
Spectra Averaged: 40 (MAYP11278)
Boxcar Smoothing: 0 (MAYP11278)
Correct for Electrical Dark: No (MAYP11278)
Strobe/Lamp Enabled: No (MAYP11278)
Correct for Detector Non-linearity: No (MAYP11278)
Correct for Stray Light: No (MAYP11278)
Number of Pixels in Processed Spectrum: 2068
>>>>>Begin Processed Spectral Data<<<<<
200,00	3038,25
200,47	3002,32
200,95	2999,98
201,42	3000,80
201,89	3026,72
202,37	3025,28
202,84	3024,65
203,31	3025,58
203,79	3028,80
204,26	3027,40
204,73	3026,32
205,20	3026,02
205,68	3028,68
206,15	3028,75
206,62	3030,42
207,10	3029,12
207,57	3030,12
208,04	3027,45
208,51	3026,90
208,99	3030,42
209,46	3025,12
209,93	3026,52
210,41	3028,65
210,88	3027,00
211,35	3028,12
211,82	3028,88
212,30	3028,05
212,77	3028,52
213,24	3028,18
213,71	3030,30
214,19	3029,68
214,66	3025,92
215,13	3029,85
215,60	3026,18
216,08	3029,62
216,55	3030,88
217,02	3025,92
217,49	3027,32
217,96	3030,08
218,44	3025,90
218,91	3029,05
219,38	3032,55
219,85	3028,35
220,33	3029,45
220,80	3027,52
221,27	3030,02
221,74	3027,28
222,21	3029,40
222,69	3027,48
223,16	3029,05
223,63	3029,55
224,10	3026,18
224,57	3030,78
225,04	3029,80
225,52	3027,58
225,99	3031,68
226,46	3030,08
226,93	3030,18
227,40	3028,35
227,87	3030,08
228,35	3029,42
228,82	3028,58
229,29	3028,28
229,76	3028,75
230,23	3032,12
230,70	3027,50
231,18	3026,20
231,65	3029,80
232,12	3030,10
232,59	3031,50
233,06	3029,42
233,53	3030,35
234,00	3029,38
234,48	3029,40
234,95	3027,70
235,42	3029,48
235,89	3029,40
236,36	3027,10
236,83	3027,82
237,30	3029,90
237,77	3028,52
238,24	3028,40
238,72	3031,20
239,19	3028,80
239,66	3029,82
240,13	3029,32
240,60	3031,22
241,07	3028,62
241,54	3029,25
242,01	3027,38
242,48	3029,40
242,95	3031,22
243,42	3029,10
243,90	3027,82
244,37	3026,15
244,84	3031,50
245,31	3027,70
245,78	3034,10
246,25	3027,58
246,72	3028,68
247,19	3028,58
247,66	3026,70
248,13	3030,22
248,60	3031,90
249,07	3028,88
249,54	3028,98
250,01	3028,78
250,48	3029,35
250,95	3027,02
251,42	3026,80
251,89	3028,55
252,36	3031,28
252,83	3029,55
253,30	3028,38
253,77	3029,95
254,24	3030,72
254,71	3027,32
255,18	3026,72
255,65	3028,12
256,12	3032,10
256,59	3029,20
257,06	3030,40
257,53	3029,18
258,00	3027,15
258,47	3028,55
258,94	3029,80
259,41	3027,55
259,88	3029,25
260,35	3024,75
260,82	3028,30
261,29	3029,68
261,76	3027,68
262,23	3032,25
262,70	3027,70
263,17	3030,80
263,64	3031,75
264,11	3026,08
264,58	3030,88
265,05	3028,20
265,52	3029,28
265,99	3029,42
266,46	3028,80
266,93	3030,42
267,40	3028,72
267,87	3029,38
268,34	3028,82
268,81	3031,88
269,28	3034,12
269,74	3027,98
270,21	3026,70
270,68	3030,20
271,15	3030,42
271,62	3033,18
272,09	3027,35
272,56	3028,60
273,03	3030,55
273,50	3026,70
273,97	3029,20
274,44	3031,32
274,90	3028,20
275,37	3030,65
275,84	3030,12
276,31	3029,58
276,78	3029,02
277,25	3031,00
277,72	3029,65
278,19	3028,42
278,66	3031,05
279,12	3029,05
279,59	3030,85
280,06	3027,38
280,53	3027,82
281,00	3028,82
281,47	3029,32
281,94	3031,85
282,40	3029,10
282,87	3029,20
283,34	3027,90
283,81	3028,08
284,28	3026,78
284,75	3030,00
285,21	3036,35
285,68	3032,38
286,15	3031,50
286,62	3028,90
287,09	3028,62
287,56	3030,30
288,02	3032,02
288,49	3027,40
288,96	3028,95
289,43	3027,65
289,90	3037,88
290,36	3028,98
290,83	3030,62
291,30	3036,00
291,77	3032,00
292,24	3034,35
292,70	3028,48
293,17	3031,05
293,64	3028,18
294,11	3028,80
294,58	3030,88
295,04	3029,85
295,51	3027,62
295,98	3030,12
296,45	3028,85
296,91	3030,18
297,38	3030,95
297,85	3026,25
298,32	3030,80
298,79	3031,32
299,25	3029,05
299,72	3028,68
300,19	3026,28
300,66	3031,48
301,12	3028,78
301,59	3029,15
302,06	3029,02
302,52	3031,32
302,99	3033,18
303,46	3027,45
303,93	3032,62
304,39	3028,75
304,86	3029,18
305,33	3028,35
305,80	3026,18
306,26	3029,55
306,73	3030,80
307,20	3032,00
307,66	3031,98
308,13	3029,98
308,60	3028,55
309,07	3029,70
309,53	3027,00
310,00	3031,02
310,47	3028,75
310,93	3028,72
311,40	3029,80
311,87	3030,02
312,33	3030,20
312,80	3031,20
313,27	3026,92
313,73	3031,78
314,20	3032,08
314,67	3026,90
315,13	3027,48
315,60	3027,45
316,07	3030,12
316,53	3030,58
317,00	3028,25
317,47	3031,28
317,93	3028,35
318,40	3027,80
318,87	3028,88
319,33	3028,82
319,80	3033,22
320,26	3029,42
320,73	3030,12
321,20	3029,32
321,66	3030,55
322,13	3027,90
322,60	3031,70
323,06	3029,12
323,53	3032,92
323,99	3029,52
324,46	3028,72
324,93	3029,42
325,39	3028,25
325,86	3028,00
326,32	3030,15
326,79	3026,90
327,26	3029,48
327,72	3031,45
328,19	3029,92
328,65	3033,55
329,12	3029,35
329,59	3030,12
330,05	3027,30
330,52	3029,88
330,98	3033,45
331,45	3029,88
331,91	3028,95
332,38	3025,22
332,85	3028,05
333,31	3031,85
333,78	3027,92
334,24	3031,28
334,71	3026,90
335,17	3030,08
335,64	3029,38
336,10	3027,75
336,57	3028,88
337,03	3028,15
337,50	3031,78
337,96	3028,52
338,43	3031,62
338,90	3029,30
339,36	3028,00
339,83	3030,28
340,29	3030,80
340,76	3027,82
341,22	3030,45
341,69	3029,98
342,15	3033,32
342,62	3027,60
343,08	3032,72
343,55	3030,80
344,01	3029,52
344,48	3031,92
344,94	3030,78
345,41	3031,18
345,87	3034,30
346,34	3027,10
346,80	3028,35
347,27	3028,38
347,73	3030,72
348,19	3029,05
348,66	3028,62
349,12	3032,75
349,59	3030,22
350,05	3027,95
350,52	3028,08
350,98	3027,35
351,45	3031,98
351,91	3031,90
352,38	3029,05
352,84	3029,60
353,30	3031,25
353,77	3030,52
354,23	3029,42
354,70	3028,05
355,16	3027,58
355,63	3030,18
356,09	3030,25
356,55	3028,22
357,02	3029,80
357,48	3031,72
357,95	3028,52
358,41	3032,08
358,87	3030,68
359,34	3026,70
359,80	3028,10
360,27	3030,95
360,73	3029,45
361,19	3028,98
361,66	3031,30
362,12	3032,75
362,59	3031,08
363,05	3029,42
363,51	3028,58
363,98	3030,60
364,44	3029,80
364,91	3030,75
365,37	3030,92
365,83	3033,12
366,30	3027,35
366,76	3033,02
367,22	3027,52
367,69	3034,22
368,15	3031,00
368,61	3027,35
369,08	3029,62
369,54	3028,62
370,00	3029,02
370,47	3031,52
370,93	3032,22
371,39	3028,12
371,86	3029,15
372,32	3029,40
372,78	3029,02
373,25	3030,52
373,71	3033,72
374,17	3030,28
374,64	3028,12
375,10	3030,18
375,56	3028,42
376,03	3029,25
376,49	3029,80
376,95	3028,88
377,42	3028,92
377,88	3025,82
378,34	3027,00
378,80	3030,70
379,27	3027,62
379,73	3032,25
380,19	3028,35
380,66	3029,18
381,12	3028,20
381,58	3030,15
382,04	3027,48
382,51	3025,52
382,97	3028,40
383,43	3029,75
383,89	3028,10
384,36	3029,00
384,82	3030,18
385,28	3026,18
385,74	3032,50
386,21	3027,52
386,67	3025,85
387,13	3028,45
387,59	3029,98
388,06	3028,72
388,52	3029,18
388,98	3029,32
389,44	3028,22
389,91	3029,62
390,37	3031,12
390,83	3028,75
391,29	3031,20
391,75	3030,42
392,22	3026,60
392,68	3029,30
393,14	3027,48
393,60	3032,08
394,06	3027,68
394,53	3039,95
394,99	3028,68
395,45	3028,55
395,91	3029,68
396,37	3032,22
396,84	3027,20
397,30	3027,85
397,76	3029,60
398,22	3028,75
398,68	3030,52
399,14	3027,92
399,61	3030,02
400,07	3029,92
400,53	3031,18
400,99	3029,00
401,45	3029,45
401,91	3030,45
402,38	3028,38
402,84	3029,32
403,30	3032,15
403,76	3027,20
404,22	3030,40
404,68	3028,52
405,14	3029,92
405,61	3038,60
406,07	3027,08
406,53	3030,32
406,99	3031,38
407,45	3026,85
407,91	3029,55
408,37	3029,20
408,83	3026,45
409,29	3031,42
409,76	3028,45
410,22	3029,30
410,68	3028,65
411,14	3031,60
411,60	3030,10
412,06	3029,32
412,52	3027,60
412,98	3032,48
413,44	3029,28
413,90	3031,18
414,36	3032,30
414,83	3031,00
415,29	3027,50
415,75	3031,48
416,21	3031,22
416,67	3035,08
417,13	3030,45
417,59	3029,08
418,05	3030,08
418,51	3029,20
418,97	3033,30
419,43	3027,58
419,89	3032,85
420,35	3028,72
420,81	3033,52
421,27	3027,78
421,73	3028,12
422,19	3032,38
422,65	3028,55
423,11	3030,15
423,57	3030,08
424,03	3032,12
424,49	3028,58
424,96	3033,70
425,42	3031,12
425,88	3032,15
426,34	3035,72
426,80	3031,35
427,26	3031,32
427,72	3029,78
428,18	3030,10
428,64	3031,68
429,10	3029,25
429,56	3032,42
430,02	3029,30
430,47	3031,52
430,93	3030,28
431,39	3032,18
431,85	3030,55
432,31	3031,22
432,77	3031,15
433,23	3032,68
433,69	3030,48
434,15	3033,02
434,61	3030,00
435,07	3033,70
435,53	3031,72
435,99	3033,25
436,45	3032,25
436,91	3033,58
437,37	3029,98
437,83	3031,95
438,29	3031,50
438,75	3031,78
439,21	3032,18
439,67	3036,32
440,12	3027,02
440,58	3031,15
441,04	3033,05
441,50	3032,52
441,96	3030,65
442,42	3030,72
442,88	3032,25
443,34	3030,32
443,80	3032,18
444,26	3030,55
444,72	3031,42
445,17	3030,45
445,63	3029,00
446,09	3033,82
446,55	3031,50
447,01	3032,05
447,47	3031,65
447,93	3029,12
448,39	3039,85
448,85	3031,52
449,30	3032,22
449,76	3033,88
450,22	3030,55
450,68	3031,02
451,14	3036,88
451,60	3029,72
452,06	3031,00
452,51	3030,78
452,97	3029,02
453,43	3035,92
453,89	3032,20
454,35	3032,32
454,81	3030,80
455,26	3032,02
455,72	3031,40
456,18	3032,12
456,64	3028,92
457,10	3028,92
457,56	3030,30
458,01	3031,58
458,47	3030,68
458,93	3030,12
459,39	3030,92
459,85	3031,75
460,30	3032,02
460,76	3030,12
461,22	3028,62
461,68	3032,78
462,14	3031,30
462,59	3031,25
463,05	3031,92
463,51	3032,98
463,97	3031,55
464,43	3030,70
464,88	3033,52
465,34	3030,05
465,80	3033,48
466,26	3031,20
466,71	3030,40
467,17	3029,55
467,63	3032,22
468,09	3030,55
468,54	3031,02
469,00	3030,72
469,46	3029,25
469,92	3033,72
470,37	3033,52
470,83	3030,02
471,29	3029,12
471,75	3034,02
472,20	3030,72
472,66	3032,85
473,12	3031,68
473,58	3030,25
474,03	3030,35
474,49	3032,05
474,95	3032,28
475,40	3030,58
475,86	3032,62
476,32	3029,40
476,78	3032,78
477,23	3032,88
477,69	3029,58
478,15	3031,45
478,60	3032,68
479,06	3031,25
479,52	3031,62
479,97	3030,42
480,43	3029,60
480,89	3030,10
481,34	3029,88
481,80	3032,98
482,26	3032,12
482,71	3030,98
483,17	3029,68
483,63	3028,88
484,08	3032,50
484,54	3031,80
485,00	3031,95
485,45	3031,58
485,91	3030,58
486,37	3033,45
486,82	3033,50
487,28	3034,02
487,74	3029,72
488,19	3034,32
488,65	3033,15
489,10	3030,50
489,56	3031,15
490,02	3033,02
490,47	3032,38
490,93	3030,50
491,39	3031,95
491,84	3030,42
492,30	3033,00
492,75	3034,12
493,21	3034,35
493,67	3031,25
494,12	3030,70
494,58	3032,40
495,03	3030,75
495,49	3032,62
495,95	3029,88
496,40	3030,92
496,86	3032,60
497,31	3034,35
497,77	3034,22
498,23	3034,92
498,68	3030,25
499,14	3033,85
499,59	3031,35
500,05	3031,05
500,50	3029,58
500,96	3035,38
501,41	3033,42
501,87	3033,85
502,33	3031,68
502,78	3032,95
503,24	3030,90
503,69	3031,25
504,15	3035,00
504,60	3031,15
505,06	3033,32
505,51	3036,00
505,97	3035,15
506,42	3030,95
506,88	3033,40
507,33	3031,10
507,79	3037,82
508,24	3033,48
508,70	3034,15
509,15	3033,05
509,61	3031,32
510,06	3033,45
510,52	3033,75
510,97	3032,95
511,43	3033,58
511,88	3033,58
512,34	3033,20
512,79	3032,60
513,25	3035,20
513,70	3032,50
514,16	3034,20
514,61	3035,42
515,07	3032,10
515,52	3035,75
515,98	3035,10
516,43	3032,50
516,89	3033,32
517,34	3031,08
517,80	3032,18
518,25	3034,25
518,70	3031,98
519,16	3034,80
519,61	3036,78
520,07	3030,45
520,52	3030,80
520,98	3033,18
521,43	3035,75
521,89	3031,32
522,34	3035,70
522,79	3036,22
523,25	3030,12
523,70	3033,35
524,16	3036,80
524,61	3036,65
525,06	3039,30
525,52	3035,52
525,97	3035,20
526,43	3041,80
526,88	3035,08
527,33	3032,15
527,79	3032,45
528,24	3032,15
528,70	3035,42
529,15	3034,78
529,60	3034,90
530,06	3033,08
530,51	3031,95
530,97	3036,22
531,42	3036,22
531,87	3034,05
532,33	3037,78
532,78	3035,48
533,23	3036,30
533,69	3035,92
534,14	3034,42
534,59	3034,35
535,05	3032,90
535,50	3033,72
535,96	3035,10
536,41	3033,58
536,86	3034,95
537,32	3031,70
537,77	3036,48
538,22	3036,05
538,68	3031,30
539,13	3037,72
539,58	3034,10
540,03	3034,75
540,49	3035,80
540,94	3035,52
541,39	3034,42
541,85	3033,85
542,30	3034,92
542,75	3034,28
543,21	3034,08
543,66	3036,25
544,11	3035,45
544,57	3033,82
545,02	3036,18
545,47	3035,00
545,92	3036,18
546,38	3039,80
546,83	3035,35
547,28	3046,98
547,73	3033,42
548,19	3039,25
548,64	3036,05
549,09	3033,15
549,55	3037,65
550,00	3035,78
550,45	3034,48
550,90	3042,45
551,36	3034,48
551,81	3039,62
552,26	3039,92
552,71	3035,95
553,17	3036,45
553,62	3037,12
554,07	3038,58
554,52	3039,42
554,97	3038,85
555,43	3037,72
555,88	3038,65
556,33	3037,48
556,78	3038,85
557,24	3041,55
557,69	3038,38
558,14	3037,15
558,59	3039,42
559,04	3041,62
559,50	3042,38
559,95	3040,82
560,40	3039,88
560,85	3042,22
561,30	3040,75
561,76	3039,48
562,21	3043,72
562,66	3043,10
563,11	3047,22
563,56	3044,02
564,01	3047,98
564,47	3044,00
564,92	3047,45
565,37	3051,68
565,82	3046,38
566,27	3047,22
566,72	3048,22
567,18	3048,35
567,63	3048,20
568,08	3053,20
568,53	3051,42
568,98	3052,52
569,43	3053,15
569,88	3051,55
570,34	3058,70
570,79	3060,98
571,24	3059,85
571,69	3061,40
572,14	3062,70
572,59	3064,82
573,04	3068,38
573,49	3070,42
573,94	3071,55
574,40	3070,75
574,85	3076,52
575,30	3079,32
575,75	3077,85
576,20	3085,15
576,65	3089,50
577,10	3091,82
577,55	3094,88
578,00	3099,98
578,45	3102,70
578,91	3104,98
579,36	3111,50
579,81	3120,35
580,26	3121,38
580,71	3126,75
581,16	3137,85
581,61	3142,95
582,06	3152,12
582,51	3156,60
582,96	3163,80
583,41	3168,05
583,86	3182,68
584,31	3191,28
584,76	3200,90
585,21	3209,95
585,66	3225,35
586,11	3235,30
586,56	3245,35
587,01	3263,92
587,46	3274,82
587,92	3290,25
588,37	3306,42
588,82	3320,60
589,27	3339,18
589,72	3354,98
590,17	3373,30
590,62	3395,85
591,07	3415,68
591,52	3440,10
591,97	3458,02
592,42	3487,18
592,87	3509,52
593,32	3538,68
593,77	3566,15
594,22	3592,45
594,67	3627,75
595,12	3660,40
595,56	3697,80
596,01	3733,45
596,46	3774,68
596,91	3815,18
597,36	3863,22
597,81	3902,78
598,26	3951,02
598,71	4011,22
599,16	4057,55
599,61	4115,45
600,06	4172,02
600,51	4239,68
600,96	4297,40
601,41	4370,38
601,86	4446,72
602,31	4523,92
602,76	4593,45
603,21	4690,62
603,66	4773,62
604,11	4869,18
604,55	4970,00
605,00	5070,10
605,45	5171,90
605,90	5286,20
606,35	5405,52
606,80	5535,58
607,25	5663,18
607,70	5805,35
608,15	5950,08
608,60	6089,90
609,04	6264,65
609,49	6415,92
609,94	6592,22
610,39	6780,85
610,84	6969,22
611,29	7172,80
611,74	7379,38
612,19	7591,98
612,64	7822,25
613,08	8068,55
613,53	8323,78
613,98	8576,88
614,43	8857,30
614,88	9162,20
615,33	9458,12
615,78	9796,55
616,22	10103,85
616,67	10450,15
617,12	10827,12
617,57	11185,95
618,02	11598,58
618,47	12008,25
618,91	12404,28
619,36	12868,55
619,81	13311,92
620,26	13799,58
620,71	14293,15
621,16	14780,18
621,60	15281,50
622,05	15808,48
622,50	16345,72
622,95	16921,50
623,40	17511,72
623,84	18097,18
624,29	18749,58
624,74	19386,95
625,19	20067,48
625,64	20815,12
626,08	21567,45
626,53	22375,82
626,98	23210,92
627,43	24095,28
627,87	25023,52
628,32	25991,80
628,77	27050,62
629,22	28118,90
629,66	29291,90
630,11	30479,88
630,56	31731,48
631,01	32986,60
631,46	34288,10
631,90	35615,25
632,35	37029,58
632,80	38360,88
633,25	39799,40
633,69	41157,28
634,14	42500,88
634,59	43857,18
635,03	45228,70
635,48	46596,08
635,93	48002,08
636,38	49362,68
636,82	50747,25
637,27	52025,38
637,72	53341,32
638,16	54589,65
638,61	55716,10
639,06	56726,50
639,51	57553,20
639,95	58054,18
640,40	58173,95
640,85	58008,25
641,29	57456,90
641,74	56465,18
642,19	55154,52
642,63	53498,38
643,08	51503,50
643,53	49256,02
643,97	46803,55
644,42	44305,02
644,87	41784,92
645,31	39288,85
645,76	36867,22
646,21	34641,82
646,65	32533,15
647,10	30532,12
647,55	28678,72
647,99	26972,18
648,44	25407,55
648,89	23990,52
649,33	22691,72
649,78	21494,35
650,23	20358,68
650,67	19305,08
651,12	18319,82
651,56	17361,25
652,01	16492,72
652,46	15666,32
652,90	14910,32
653,35	14191,85
653,80	13485,42
654,24	12796,02
654,69	12154,65
655,13	11564,50
655,58	11017,90
656,03	10487,50
656,47	9974,00
656,92	9489,78
657,36	9024,80
657,81	8593,22
658,26	8190,50
658,70	7825,68
659,15	7482,30
659,59	7163,58
660,04	6868,80
660,48	6598,90
660,93	6345,50
661,38	6107,88
661,82	5888,10
662,27	5684,12
662,71	5504,52
663,16	5333,45
663,60	5180,70
664,05	5034,05
664,49	4904,95
664,94	4783,18
665,38	4675,02
665,83	4559,65
666,28	4463,60
666,72	4373,18
667,17	4293,42
667,61	4215,35
668,06	4143,32
668,50	4080,25
668,95	4008,20
669,39	3953,22
669,84	3894,02
670,28	3844,50
670,73	3790,52
671,17	3750,00
671,62	3705,55
672,06	3664,62
672,51	3626,70
672,95	3587,62
673,40	3551,28
673,84	3521,20
674,29	3486,60
674,73	3454,82
675,18	3437,70
675,62	3402,38
676,07	3384,40
676,51	3365,10
676,95	3342,88
677,40	3325,40
677,84	3309,55
678,29	3288,65
678,73	3273,72
679,18	3263,05
679,62	3249,15
680,07	3232,40
680,51	3219,85
680,96	3206,00
681,40	3195,45
681,84	3189,28
682,29	3177,98
682,73	3170,50
683,18	3163,90
683,62	3162,92
684,07	3146,12
684,51	3142,95
684,95	3136,92
685,40	3130,62
685,84	3126,15
686,29	3121,20
686,73	3114,32
687,17	3108,88
687,62	3107,95
688,06	3106,38
688,51	3101,28
688,95	3097,88
689,39	3094,55
689,84	3094,10
690,28	3089,70
690,73	3085,55
691,17	3083,75
691,61	3079,10
692,06	3078,95
692,50	3075,82
692,94	3074,58
693,39	3073,72
693,83	3069,28
694,27	3074,20
694,72	3068,50
695,16	3063,72
695,60	3065,28
696,05	3061,32
696,49	3059,92
696,94	3060,90
697,38	3057,45
697,82	3056,20
698,27	3056,05
698,71	3056,50
699,15	3055,12
699,59	3052,60
700,04	3052,50
700,48	3060,45
700,92	3050,60
701,37	3049,42
701,81	3054,40
702,25	3048,05
702,70	3048,28
703,14	3047,92
703,58	3046,10
704,03	3047,35
704,47	3047,48
704,91	3044,48
705,35	3043,88
705,80	3047,95
706,24	3046,05
706,68	3051,20
707,13	3041,88
707,57	3044,22
708,01	3043,52
708,45	3043,02
708,90	3045,18
709,34	3041,52
709,78	3041,80
710,22	3042,18
710,67	3042,98
711,11	3043,10
711,55	3039,10
711,99	3042,45
712,44	3040,60
712,88	3038,05
713,32	3042,22
713,76	3041,85
714,21	3038,80
714,65	3038,85
715,09	3039,90
715,53	3039,35
715,97	3037,12
716,42	3039,50
716,86	3039,68
717,30	3038,88
717,74	3039,98
718,18	3042,38
718,63	3038,50
719,07	3040,42
719,51	3040,40
719,95	3038,95
720,39	3037,48
720,84	3039,32
721,28	3036,75
721,72	3036,55
722,16	3033,12
722,60	3035,42
723,04	3039,95
723,49	3040,65
723,93	3036,70
724,37	3033,92
724,81	3038,10
725,25	3035,68
725,69	3035,80
726,14	3037,40
726,58	3035,98
727,02	3037,08
727,46	3037,45
727,90	3035,35
728,34	3034,18
728,78	3038,12
729,23	3034,25
729,67	3038,10
730,11	3034,15
730,55	3035,68
730,99	3036,55
731,43	3035,45
731,87	3039,32
732,31	3034,22
732,76	3037,50
733,20	3038,88
733,64	3033,72
734,08	3038,32
734,52	3035,25
734,96	3037,05
735,40	3034,15
735,84	3036,95
736,28	3035,15
736,72	3035,60
737,16	3036,00
737,61	3034,42
738,05	3037,70
738,49	3034,92
738,93	3034,10
739,37	3037,80
739,81	3037,52
740,25	3034,60
740,69	3041,12
741,13	3034,28
741,57	3037,52
742,01	3039,20
742,45	3035,52
742,89	3032,52
743,33	3035,72
743,77	3034,80
744,21	3032,40
744,65	3038,10
745,09	3034,55
745,53	3033,40
745,98	3034,52
746,42	3035,08
746,86	3035,72
747,30	3034,12
747,74	3033,25
748,18	3030,58
748,62	3033,52
749,06	3035,90
749,50	3036,25
749,94	3034,70
750,38	3035,02
750,82	3039,02
751,26	3030,68
751,70	3030,55
752,14	3031,85
752,58	3034,38
753,02	3033,65
753,45	3033,42
753,89	3033,08
754,33	3039,92
754,77	3033,95
755,21	3033,80
755,65	3031,55
756,09	3032,08
756,53	3032,45
756,97	3033,70
757,41	3036,00
757,85	3030,68
758,29	3032,25
758,73	3030,62
759,17	3031,88
759,61	3030,52
760,05	3035,28
760,49	3033,22
760,93	3035,60
761,37	3031,95
761,80	3035,18
762,24	3035,20
762,68	3032,42
763,12	3031,72
763,56	3032,90
764,00	3031,68
764,44	3031,55
764,88	3032,95
765,32	3032,25
765,76	3034,38
766,20	3034,48
766,63	3033,48
767,07	3029,22
767,51	3032,30
767,95	3033,12
768,39	3031,20
768,83	3031,22
769,27	3030,68
769,71	3033,05
770,14	3031,98
770,58	3031,25
771,02	3030,45
771,46	3032,02
771,90	3031,32
772,34	3033,25
772,78	3031,88
773,21	3032,90
773,65	3035,45
774,09	3030,10
774,53	3031,90
774,97	3031,22
775,41	3032,78
775,84	3033,28
776,28	3031,55
776,72	3031,80
777,16	3031,40
777,60	3030,80
778,04	3030,92
778,47	3029,00
778,91	3032,00
779,35	3029,70
779,79	3031,62
780,23	3032,72
780,66	3031,52
781,10	3030,98
781,54	3030,42
781,98	3032,05
782,42	3032,08
782,85	3030,40
783,29	3030,90
783,73	3036,15
784,17	3033,68
784,61	3030,90
785,04	3033,90
785,48	3031,42
785,92	3030,88
786,36	3032,65
786,79	3030,05
787,23	3030,25
787,67	3034,00
788,11	3032,80
788,54	3032,42
788,98	3030,35
789,42	3031,58
789,86	3029,00
790,29	3032,95
790,73	3033,30
791,17	3034,08
791,60	3030,00
792,04	3030,78
792,48	3031,52
792,92	3028,38
793,35	3031,05
793,79	3031,78
794,23	3032,72
794,67	3029,42
795,10	3028,98
795,54	3033,18
795,98	3029,98
796,41	3030,75
796,85	3029,22
797,29	3040,18
797,72	3032,98
798,16	3030,20
798,60	3033,68
799,03	3030,80
799,47	3029,40
799,91	3031,92
800,34	3030,22
800,78	3030,05
801,22	3030,18
801,65	3029,45
802,09	3028,90
802,53	3032,70
802,96	3032,38
803,40	3029,00
803,84	3035,70
804,27	3032,15
804,71	3030,25
805,15	3032,08
805,58	3032,40
806,02	3029,50
806,46	3032,80
806,89	3034,50
807,33	3032,22
807,76	3031,40
808,20	3029,82
808,64	3029,45
809,07	3033,25
809,51	3034,42
809,95	3034,90
810,38	3031,32
810,82	3034,52
811,25	3030,42
811,69	3032,08
812,13	3028,08
812,56	3032,38
813,00	3029,25
813,43	3027,15
813,87	3028,88
814,30	3031,20
814,74	3033,38
815,18	3037,42
815,61	3030,85
816,05	3029,95
816,48	3033,40
816,92	3035,55
817,35	3032,45
817,79	3029,70
818,23	3029,02
818,66	3032,52
819,10	3029,62
819,53	3031,42
819,97	3028,30
820,40	3030,72
820,84	3033,10
821,27	3030,02
821,71	3033,45
822,14	3030,00
822,58	3032,02
823,01	3032,72
823,45	3029,90
823,88	3030,88
824,32	3029,02
824,75	3030,95
825,19	3027,40
825,63	3031,65
826,06	3028,52
826,50	3028,48
826,93	3031,02
827,37	3029,30
827,80	3029,88
828,23	3028,82
828,67	3030,20
829,10	3032,02
829,54	3028,78
829,97	3030,68
830,41	3027,52
830,84	3028,90
831,28	3031,20
831,71	3032,78
832,15	3027,82
832,58	3031,95
833,02	3030,02
833,45	3028,75
833,89	3034,70
834,32	3030,25
834,75	3032,75
835,19	3032,52
835,62	3033,70
836,06	3027,25
836,49	3030,68
836,93	3029,25
837,36	3029,98
837,79	3032,32
838,23	3029,28
838,66	3028,70
839,10	3030,65
839,53	3029,45
839,97	3030,42
840,40	3027,90
840,83	3034,00
841,27	3027,95
841,70	3028,70
842,14	3030,85
842,57	3028,78
843,00	3032,70
843,44	3033,50
843,87	3029,28
844,31	3030,72
844,74	3027,38
845,17	3029,12
845,61	3028,45
846,04	3027,62
846,47	3031,58
846,91	3029,60
847,34	3031,38
847,77	3030,42
848,21	3028,20
848,64	3030,85
849,08	3029,28
849,51	3029,62
849,94	3028,18
850,38	3028,58
850,81	3029,82
851,24	3027,55
851,68	3029,08
852,11	3030,38
852,54	3030,12
852,98	3031,02
853,41	3030,60
853,84	3028,68
854,28	3032,65
854,71	3027,98
855,14	3030,70
855,57	3031,30
856,01	3028,20
856,44	3029,88
856,87	3030,92
857,31	3027,15
857,74	3031,40
858,17	3027,60
858,61	3028,55
859,04	3031,62
859,47	3030,42
859,90	3027,75
860,34	3029,22
860,77	3026,85
861,20	3027,45
861,63	3032,10
862,07	3025,08
862,50	3027,40
862,93	3028,80
863,37	3029,02
863,80	3027,85
864,23	3030,02
864,66	3028,42
865,10	3028,70
865,53	3030,50
865,96	3029,18
866,39	3029,95
866,82	3029,60
867,26	3026,88
867,69	3026,78
868,12	3028,95
868,55	3027,72
868,99	3030,02
869,42	3026,18
869,85	3029,10
870,28	3028,32
870,71	3029,32
871,15	3029,98
871,58	3029,50
872,01	3030,10
872,44	3030,08
872,87	3032,00
873,31	3033,38
873,74	3027,20
874,17	3029,82
874,60	3029,78
875,03	3027,62
875,47	3027,52
875,90	3029,30
876,33	3028,45
876,76	3030,10
877,19	3031,42
877,62	3028,72
878,06	3026,88
878,49	3030,45
878,92	3024,38
879,35	3028,92
879,78	3027,70
880,21	3029,52
880,64	3027,62
881,08	3029,52
881,51	3030,40
881,94	3028,62
882,37	3031,12
882,80	3025,98
883,23	3026,78
883,66	3027,68
884,09	3028,55
884,53	3030,28
884,96	3028,42
885,39	3028,25
885,82	3027,68
886,25	3026,32
886,68	3027,68
887,11	3030,28
887,54	3027,62
887,97	3030,05
888,40	3029,42
888,84	3027,78
889,27	3026,25
889,70	3031,28
890,13	3027,85
890,56	3027,98
890,99	3028,90
891,42	3027,78
891,85	3036,38
892,28	3027,65
892,71	3030,00
893,14	3027,85
893,57	3030,00
894,00	3028,72
894,43	3026,60
894,86	3027,48
895,29	3027,50
895,73	3027,52
896,16	3028,08
896,59	3028,25
897,02	3026,48
897,45	3029,05
897,88	3028,70
898,31	3026,65
898,74	3027,85
899,17	3031,45
899,60	3026,88
900,03	3027,50
900,46	3028,92
900,89	3030,42
901,32	3030,12
901,75	3025,80
902,18	3027,82
902,61	3025,80
903,04	3030,75
903,47	3028,62
903,90	3027,60
904,33	3032,52
904,76	3032,05
905,19	3028,80
905,62	3028,75
906,05	3030,18
906,48	3026,52
906,91	3028,88
907,34	3026,45
907,76	3027,48
908,19	3026,72
908,62	3030,70
909,05	3028,05
909,48	3029,75
909,91	3028,65
910,34	3028,30
910,77	3030,40
911,20	3031,75
911,63	3029,00
912,06	3025,58
912,49	3029,18
912,92	3028,52
913,35	3027,35
913,78	3028,18
914,21	3028,68
914,63	3028,72
915,06	3026,88
915,49	3028,78
915,92	3028,30
916,35	3028,08
916,78	3026,48
917,21	3025,52
917,64	3026,55
918,07	3026,58
918,50	3029,32
918,92	3026,78
919,35	3030,10
919,78	3027,25
920,21	3029,88
920,64	3025,72
921,07	3027,70
921,50	3028,30
921,93	3028,28
922,35	3029,78
922,78	3028,42
923,21	3031,00
923,64	3030,45
924,07	3026,18
924,50	3026,35
924,92	3024,55
925,35	3029,00
925,78	3031,72
926,21	3028,92
926,64	3025,12
927,07	3030,15
927,49	3026,25
927,92	3029,48
928,35	3031,45
928,78	3027,20
929,21	3029,22
929,64	3027,08
930,06	3032,30
930,49	3027,60
930,92	3026,40
931,35	3027,60
931,78	3027,65
932,20	3027,15
932,63	3029,62
933,06	3027,75
933,49	3027,92
933,92	3024,90
934,34	3029,50
934,77	3027,98
935,20	3031,32
935,63	3028,08
936,05	3027,58
936,48	3028,78
936,91	3029,12
937,34	3026,32
937,76	3025,32
938,19	3026,08
938,62	3027,10
939,05	3029,52
939,47	3026,22
939,90	3030,88
940,33	3027,48
940,76	3025,92
941,18	3029,42
941,61	3026,75
942,04	3027,48
942,47	3028,50
942,89	3031,12
943,32	3026,05
943,75	3029,08
944,17	3024,48
944,60	3025,85
945,03	3030,02
945,46	3025,32
945,88	3025,32
946,31	3029,12
946,74	3027,40
947,16	3027,78
947,59	3026,68
948,02	3027,02
948,44	3028,20
948,87	3030,98
949,30	3027,18
949,72	3026,45
950,15	3029,50
950,58	3025,15
951,00	3024,22
951,43	3025,50
951,86	3031,92
952,28	3030,45
952,71	3025,70
953,14	3027,52
953,56	3027,90
953,99	3024,70
954,42	3029,30
954,84	3027,78
955,27	3032,30
955,70	3024,75
956,12	3026,80
956,55	3029,30
956,98	3027,72
957,40	3027,22
957,83	3027,85
958,25	3026,32
958,68	3029,32
959,11	3034,80
959,53	3024,18
959,96	3031,25
960,38	3027,55
960,81	3026,55
961,24	3026,25
961,66	3026,10
962,09	3025,70
962,51	3027,95
962,94	3028,52
963,37	3029,68
963,79	3029,35
964,22	3029,02
964,64	3025,92
965,07	3028,72
965,49	3026,45
965,92	3028,85
966,35	3027,65
966,77	3024,92
967,20	3028,50
967,62	3027,18
968,05	3025,42
968,47	3028,22
968,90	3024,78
969,32	3027,02
969,75	3029,22
970,17	3036,20
970,60	3028,58
971,03	3027,68
971,45	3028,70
971,88	3026,32
972,30	3025,62
972,73	3027,88
973,15	3026,62
973,58	3028,20
974,00	3024,78
974,43	3026,45
974,85	3026,98
975,28	3029,35
975,70	3026,05
976,13	3028,62
976,55	3027,65
976,98	3026,80
977,40	3024,22
977,83	3025,70
978,25	3026,68
978,68	3025,88
979,10	3029,82
979,53	3026,12
979,95	3027,80
980,37	3025,90
980,80	3026,70
981,22	3029,98
981,65	3028,45
982,07	3025,62
982,50	3028,38
982,92	3028,90
983,35	3026,38
983,77	3028,12
984,20	3026,32
984,62	3026,80
985,04	3027,10
985,47	3028,98
985,89	3029,12
986,32	3025,78
986,74	3024,80
987,17	3026,90
987,59	3026,88
988,01	3026,48
988,44	3025,10
988,86	3027,12
989,29	3025,22
989,71	3025,72
990,13	3024,58
990,56	3026,68
990,98	3029,30
991,41	3025,70
991,83	3027,50
992,25	3027,78
992,68	3025,58
993,10	3031,52
993,53	3025,35
993,95	3025,80
994,37	3026,30
994,80	3026,38
995,22	3024,45
995,64	3026,52
996,07	3027,80
996,49	3027,28
996,91	3025,65
997,34	3024,30
997,76	3025,25
998,18	3022,32
998,61	3029,95
999,03	3028,48
999,45	3026,18
999,88	3026,80
1000,30	3025,58
1000,72	3030,05
1001,15	3026,22
1001,57	3028,00
1001,99	3028,70
1002,42	3025,60
1002,84	3027,92
1003,26	3027,32
1003,69	3026,10
1004,11	3029,10
1004,53	3025,58
1004,96	3028,20
1005,38	3024,22
1005,80	3026,40
1006,22	3025,92
1006,65	3029,40
1007,07	3027,15
1007,49	3023,80
1007,92	3028,12
1008,34	3027,35
1008,76	3026,25
1009,18	3025,35
1009,61	3027,55
1010,03	3026,80
1010,45	3032,90
1010,87	3029,58
1011,30	3028,92
1011,72	3027,58
1012,14	3026,55
1012,56	3029,65
1012,99	3027,18
1013,41	3027,10
1013,83	3027,40
1014,25	3027,72
1014,68	3027,62
1015,10	3026,30
1015,52	3031,50
1015,94	3025,32
1016,37	3028,70
1016,79	3026,00
1017,21	3027,30
1017,63	3024,90
1018,05	3027,75
1018,48	3027,35
1018,90	3025,30
1019,32	3025,75
1019,74	3024,85
1020,16	3034,02
1020,59	3030,32
1021,01	3027,38
1021,43	3028,28
1021,85	3028,28
1022,27	3028,62
1022,69	3028,18
1023,12	3029,18
1023,54	3027,82
1023,96	3034,18
1024,38	3030,00
1024,80	3030,58
1025,22	3028,38
1025,65	3027,75
1026,07	3029,58
1026,49	3028,75
1026,91	3026,32
1027,33	3027,05
1027,75	3032,82
1028,17	3028,58
1028,60	3027,82
1029,02	3027,62
1029,44	3028,65
1029,86	3026,75
1030,28	3034,12
1030,70	3029,65
1031,12	3028,70
1031,54	3029,45
1031,97	3031,90
1032,39	3027,40
1032,81	3029,45
1033,23	3031,12
1033,65	3028,78
1034,07	3031,02
1034,49	3028,92
1034,91	3027,48
1035,33	3031,05
1035,75	3029,75
1036,18	3027,15
1036,60	3031,90
1037,02	3028,28
1037,44	3026,82
1037,86	3029,52
1038,28	3027,90
1038,70	3032,30
1039,12	3032,00
1039,54	3030,40
1039,96	3034,48
1040,38	3033,45
1040,80	3029,90
1041,22	3031,75
1041,64	3032,12
1042,06	3029,98
1042,48	3034,25
1042,90	3035,18
1043,32	3034,48
1043,74	3033,48
1044,17	3033,05
1044,59	3034,68
1045,01	3031,25
1045,43	3032,22
1045,85	3032,85
1046,27	3032,20
1046,69	3035,05
1047,11	3036,02
1047,53	3032,12
1047,95	3036,02
1048,37	3037,32
1048,79	3034,65
1049,21	3036,90
1049,63	3037,75
1050,05	3037,75
1050,47	3036,20
1050,89	3037,38
1051,31	3037,80
1051,72	3038,40
1052,14	3039,95
1052,56	3040,58
1052,98	3038,95
1053,40	3042,15
1053,82	3036,08
1054,24	3040,00
1054,66	3037,00
1055,08	3039,85
1055,50	3038,28
1055,92	3041,92
1056,34	3040,08
1056,76	3043,75
1057,18	3041,68
1057,60	3042,30
1058,02	3040,50
1058,44	3049,18
1058,86	3040,20
1059,28	3040,95
1059,69	3044,18
1060,11	3041,58
1060,53	3041,52
1060,95	3041,80
1061,37	3043,02
1061,79	3040,55
1062,21	3039,28
1062,63	3041,78
1063,05	3044,18
1063,47	3040,00
1063,88	3041,10
1064,30	3038,42
1064,72	3044,62
1065,14	3046,62
1065,56	3040,92
1065,98	3040,55
1066,40	3040,18
1066,82	3040,65
1067,23	3042,25
1067,65	3043,88
1068,07	3041,98
1068,49	3041,78
1068,91	3046,98
1069,33	3041,88
1069,75	3042,15
1070,16	3038,95
1070,58	3044,02
1071,00	3043,02
1071,42	3045,18
1071,84	3040,75
1072,26	3043,80
1072,67	3042,15
1073,09	3041,00
1073,51	3039,92
1073,93	3043,22
1074,35	3040,20
1074,77	3039,50
1075,18	3041,70
1075,60	3042,55
1076,02	3041,38
1076,44	3041,52
1076,86	3039,40
1077,27	3040,60
1077,69	3044,22
1078,11	3042,68
1078,53	3044,00
1078,94	3046,70
1079,36	3038,18
1079,78	3043,18
1080,20	3041,92
1080,62	3043,98
1081,03	3045,18
1081,45	3041,22
1081,87	3041,68
1082,29	3044,10
1082,70	3040,80
1083,12	3042,72
1083,54	3042,38
1083,96	3044,65
1084,37	3043,65
1084,79	3042,10
1085,21	3042,22
1085,63	3046,75
1086,04	3041,08
1086,46	3040,78
1086,88	3044,62
1087,30	3039,50
1087,71	3043,95
1088,13	3141,45
1088,55	3042,90
1088,96	3042,12
1089,38	3042,55
1089,80	3042,32
1090,22	3045,02
1090,63	3041,18
1091,05	3040,18
1091,47	3044,52
1091,88	3040,62
1092,30	3039,40
1092,72	3042,32
1093,13	3041,60
1093,55	3044,32
1093,97	3041,38
1094,38	3043,08
1094,80	3042,28
1095,22	3042,05
1095,63	3041,38
1096,05	3042,65
1096,47	3043,42
1096,88	3039,92
1097,30	3041,90
1097,72	3039,75
1098,13	3043,08
1098,55	3042,85
1098,97	3043,62
1099,38	3040,22
1099,80	3040,75
1100,21	3038,72
1100,63	3042,60
1101,05	3042,18
1101,46	3042,20
1101,88	3040,00
1102,30	3041,85
1102,71	3041,80
1103,13	3041,98
1103,54	3041,95
1103,96	3041,20
1104,38	3043,60
1104,79	3038,98
1105,21	3041,30
1105,62	3039,50
1106,04	3039,92
1106,46	3040,35
1106,87	3038,35
1107,29	3039,00
1107,70	3042,10
1108,12	3040,05
1108,54	3041,42
1108,95	3041,65
1109,37	3041,45
1109,78	3038,32
1110,20	3041,22
1110,61	3038,18
1111,03	3038,18
1111,44	3038,18
1111,86	3038,18
1112,28	3038,18
1112,69	3038,18
1113,11	3038,18
1113,52	3038,18
1113,94	3038,18
1114,35	3038,18
1114,77	3038,18
1115,18	3038,18
1115,60	3038,18
1116,01	3038,18
1116,43	3038,18
1116,84	3038,18
1117,26	3038,18
1117,67	3038,18
1118,09	3038,18
1118,50	3038,18
1118,92	3038,18
>>>>>End Processed Spectral Data<<<<<
