SpectraSuite Data File
++++++++++++++++++++++++++++++++++++
Date: Tue Jul 12 15:49:52 EEST 2011
User: OO Maya
Dark Spectrum Present: No
Reference Spectrum Present: No
Number of Sampled Component Spectra: 1
Spectrometers: MAYP11278
Integration Time (usec): 7000 (MAYP11278)
Spectra Averaged: 40 (MAYP11278)
Boxcar Smoothing: 0 (MAYP11278)
Correct for Electrical Dark: No (MAYP11278)
Strobe/Lamp Enabled: No (MAYP11278)
Correct for Detector Non-linearity: No (MAYP11278)
Correct for Stray Light: No (MAYP11278)
Number of Pixels in Processed Spectrum: 2068
>>>>>Begin Processed Spectral Data<<<<<
200,00	3006,85
200,47	2999,02
200,95	2998,72
201,42	2996,22
201,89	3006,35
202,37	3006,15
202,84	3005,15
203,31	3002,72
203,79	3007,45
204,26	3005,12
204,73	3007,62
205,20	3007,32
205,68	3008,35
206,15	3009,50
206,62	3010,80
207,10	3008,48
207,57	3009,98
208,04	3008,42
208,51	3006,42
208,99	3007,42
209,46	3005,82
209,93	3006,35
210,41	3005,08
210,88	3006,28
211,35	3007,55
211,82	3007,85
212,30	3007,10
212,77	3008,88
213,24	3009,78
213,71	3008,30
214,19	3009,80
214,66	3006,80
215,13	3009,92
215,60	3005,88
216,08	3008,88
216,55	3009,42
217,02	3006,92
217,49	3005,98
217,96	3008,10
218,44	3007,48
218,91	3007,12
219,38	3009,72
219,85	3008,25
220,33	3008,58
220,80	3008,52
221,27	3008,68
221,74	3009,65
222,21	3007,70
222,69	3006,75
223,16	3007,70
223,63	3008,52
224,10	3006,20
224,57	3008,05
225,04	3007,70
225,52	3006,25
225,99	3009,80
226,46	3008,52
226,93	3007,60
227,40	3008,12
227,87	3008,68
228,35	3007,50
228,82	3007,28
229,29	3007,88
229,76	3006,62
230,23	3007,88
230,70	3005,85
231,18	3007,58
231,65	3005,32
232,12	3007,08
232,59	3010,32
233,06	3008,08
233,53	3009,02
234,00	3007,22
234,48	3008,60
234,95	3008,68
235,42	3008,55
235,89	3009,15
236,36	3006,62
236,83	3007,28
237,30	3008,28
237,77	3007,40
238,24	3007,78
238,72	3009,52
239,19	3008,22
239,66	3007,68
240,13	3008,78
240,60	3009,98
241,07	3007,45
241,54	3007,85
242,01	3006,88
242,48	3008,42
242,95	3009,85
243,42	3006,55
243,90	3008,70
244,37	3006,42
244,84	3007,30
245,31	3007,80
245,78	3010,55
246,25	3008,55
246,72	3006,62
247,19	3007,20
247,66	3007,05
248,13	3008,70
248,60	3010,25
249,07	3006,80
249,54	3008,00
250,01	3006,60
250,48	3008,78
250,95	3007,32
251,42	3007,82
251,89	3008,12
252,36	3008,32
252,83	3008,18
253,30	3008,52
253,77	3008,62
254,24	3008,38
254,71	3006,35
255,18	3008,45
255,65	3008,98
256,12	3007,85
256,59	3007,52
257,06	3008,75
257,53	3009,72
258,00	3006,78
258,47	3007,82
258,94	3008,62
259,41	3008,98
259,88	3007,95
260,35	3007,55
260,82	3008,20
261,29	3009,35
261,76	3007,60
262,23	3010,68
262,70	3008,30
263,17	3009,40
263,64	3008,25
264,11	3007,25
264,58	3007,95
265,05	3008,88
265,52	3006,42
265,99	3008,30
266,46	3009,28
266,93	3009,52
267,40	3007,45
267,87	3008,65
268,34	3008,42
268,81	3007,78
269,28	3010,60
269,74	3008,60
270,21	3007,92
270,68	3008,60
271,15	3010,55
271,62	3009,22
272,09	3006,62
272,56	3006,18
273,03	3009,12
273,50	3008,18
273,97	3009,22
274,44	3008,35
274,90	3006,82
275,37	3010,00
275,84	3009,05
276,31	3007,48
276,78	3007,80
277,25	3007,50
277,72	3008,12
278,19	3007,22
278,66	3007,62
279,12	3008,18
279,59	3008,02
280,06	3006,50
280,53	3006,62
281,00	3008,50
281,47	3007,20
281,94	3010,25
282,40	3007,72
282,87	3007,95
283,34	3006,40
283,81	3008,30
284,28	3006,75
284,75	3007,15
285,21	3012,10
285,68	3008,98
286,15	3009,20
286,62	3007,12
287,09	3008,78
287,56	3007,92
288,02	3008,95
288,49	3007,55
288,96	3007,40
289,43	3008,08
289,90	3011,62
290,36	3007,18
290,83	3007,15
291,30	3011,50
291,77	3009,38
292,24	3010,70
292,70	3005,88
293,17	3007,70
293,64	3008,48
294,11	3006,38
294,58	3008,20
295,04	3006,75
295,51	3007,40
295,98	3008,70
296,45	3006,12
296,91	3006,88
297,38	3007,82
297,85	3007,30
298,32	3007,62
298,79	3008,65
299,25	3007,95
299,72	3008,85
300,19	3006,55
300,66	3008,28
301,12	3007,25
301,59	3008,95
302,06	3006,95
302,52	3009,90
302,99	3010,45
303,46	3007,65
303,93	3008,25
304,39	3006,08
304,86	3007,52
305,33	3008,80
305,80	3006,65
306,26	3009,48
306,73	3007,98
307,20	3008,65
307,66	3009,80
308,13	3009,95
308,60	3008,02
309,07	3008,95
309,53	3008,40
310,00	3009,38
310,47	3006,58
310,93	3009,12
311,40	3008,20
311,87	3008,72
312,33	3008,48
312,80	3007,30
313,27	3007,55
313,73	3008,60
314,20	3008,02
314,67	3006,55
315,13	3006,68
315,60	3007,00
316,07	3008,48
316,53	3009,65
317,00	3007,42
317,47	3007,85
317,93	3007,60
318,40	3007,32
318,87	3006,68
319,33	3009,75
319,80	3008,30
320,26	3010,20
320,73	3008,42
321,20	3009,82
321,66	3008,18
322,13	3006,10
322,60	3008,35
323,06	3007,40
323,53	3011,75
323,99	3006,40
324,46	3008,62
324,93	3006,65
325,39	3006,78
325,86	3006,78
326,32	3009,50
326,79	3008,00
327,26	3005,78
327,72	3007,90
328,19	3007,78
328,65	3012,28
329,12	3007,50
329,59	3007,70
330,05	3007,98
330,52	3008,25
330,98	3010,35
331,45	3007,52
331,91	3006,85
332,38	3005,58
332,85	3007,65
333,31	3009,30
333,78	3008,05
334,24	3006,02
334,71	3007,22
335,17	3008,02
335,64	3007,85
336,10	3007,42
336,57	3007,45
337,03	3008,52
337,50	3008,35
337,96	3007,60
338,43	3008,15
338,90	3007,35
339,36	3006,90
339,83	3007,80
340,29	3006,88
340,76	3007,10
341,22	3008,72
341,69	3008,20
342,15	3007,80
342,62	3007,62
343,08	3008,52
343,55	3008,68
344,01	3009,28
344,48	3008,42
344,94	3007,42
345,41	3007,70
345,87	3012,05
346,34	3007,30
346,80	3007,00
347,27	3007,98
347,73	3007,90
348,19	3007,48
348,66	3007,65
349,12	3008,48
349,59	3009,68
350,05	3008,42
350,52	3005,90
350,98	3008,45
351,45	3007,10
351,91	3010,65
352,38	3007,20
352,84	3007,60
353,30	3008,35
353,77	3007,92
354,23	3007,62
354,70	3007,98
355,16	3006,68
355,63	3007,80
356,09	3008,48
356,55	3007,58
357,02	3005,65
357,48	3008,70
357,95	3008,90
358,41	3009,20
358,87	3008,50
359,34	3007,70
359,80	3008,68
360,27	3007,62
360,73	3008,75
361,19	3007,08
361,66	3008,52
362,12	3009,00
362,59	3007,38
363,05	3008,20
363,51	3008,90
363,98	3007,18
364,44	3008,65
364,91	3006,52
365,37	3009,08
365,83	3010,20
366,30	3006,42
366,76	3009,18
367,22	3007,48
367,69	3009,95
368,15	3009,32
368,61	3006,62
369,08	3007,92
369,54	3008,82
370,00	3007,45
370,47	3008,20
370,93	3009,70
371,39	3007,12
371,86	3006,55
372,32	3008,88
372,78	3007,55
373,25	3008,08
373,71	3010,62
374,17	3007,82
374,64	3008,65
375,10	3008,58
375,56	3007,42
376,03	3006,62
376,49	3006,85
376,95	3007,15
377,42	3008,22
377,88	3006,60
378,34	3007,70
378,80	3007,95
379,27	3007,25
379,73	3008,48
380,19	3007,52
380,66	3008,52
381,12	3006,38
381,58	3006,70
382,04	3008,78
382,51	3006,82
382,97	3006,85
383,43	3008,50
383,89	3007,90
384,36	3006,80
384,82	3007,78
385,28	3007,22
385,74	3008,82
386,21	3007,20
386,67	3008,45
387,13	3006,68
387,59	3008,65
388,06	3007,80
388,52	3007,32
388,98	3009,05
389,44	3006,15
389,91	3008,70
390,37	3009,48
390,83	3006,65
391,29	3009,00
391,75	3007,42
392,22	3007,08
392,68	3008,02
393,14	3008,70
393,60	3009,18
394,06	3007,65
394,53	3014,38
394,99	3009,35
395,45	3007,28
395,91	3008,50
396,37	3008,40
396,84	3006,78
397,30	3008,08
397,76	3008,22
398,22	3008,38
398,68	3007,10
399,14	3007,90
399,61	3009,30
400,07	3007,92
400,53	3008,72
400,99	3008,28
401,45	3005,88
401,91	3008,25
402,38	3005,95
402,84	3008,22
403,30	3010,08
403,76	3007,40
404,22	3008,22
404,68	3006,72
405,14	3008,85
405,61	3010,60
406,07	3007,20
406,53	3008,02
406,99	3008,48
407,45	3005,72
407,91	3007,52
408,37	3006,00
408,83	3007,05
409,29	3009,35
409,76	3007,30
410,22	3007,18
410,68	3007,65
411,14	3008,02
411,60	3007,38
412,06	3009,08
412,52	3007,02
412,98	3008,95
413,44	3008,95
413,90	3009,55
414,36	3009,78
414,83	3009,88
415,29	3005,52
415,75	3010,10
416,21	3007,25
416,67	3008,22
417,13	3008,30
417,59	3007,38
418,05	3009,05
418,51	3006,92
418,97	3009,65
419,43	3006,42
419,89	3009,48
420,35	3008,95
420,81	3007,78
421,27	3006,52
421,73	3007,22
422,19	3008,35
422,65	3007,32
423,11	3007,62
423,57	3008,32
424,03	3007,62
424,49	3006,58
424,96	3009,38
425,42	3008,08
425,88	3007,35
426,34	3010,18
426,80	3008,18
427,26	3007,65
427,72	3007,08
428,18	3007,88
428,64	3008,28
429,10	3006,30
429,56	3007,80
430,02	3007,40
430,47	3008,75
430,93	3006,78
431,39	3007,52
431,85	3007,68
432,31	3006,25
432,77	3007,70
433,23	3009,20
433,69	3008,80
434,15	3008,28
434,61	3008,18
435,07	3007,50
435,53	3008,12
435,99	3008,95
436,45	3006,72
436,91	3010,02
437,37	3007,20
437,83	3008,62
438,29	3007,22
438,75	3007,25
439,21	3006,82
439,67	3011,82
440,12	3006,78
440,58	3008,15
441,04	3010,02
441,50	3008,92
441,96	3008,30
442,42	3007,50
442,88	3008,15
443,34	3008,35
443,80	3007,55
444,26	3007,02
444,72	3007,82
445,17	3008,32
445,63	3006,72
446,09	3008,88
446,55	3006,88
447,01	3008,22
447,47	3007,35
447,93	3006,72
448,39	3011,68
448,85	3007,50
449,30	3008,58
449,76	3008,52
450,22	3006,60
450,68	3007,50
451,14	3009,80
451,60	3006,65
452,06	3007,45
452,51	3007,60
452,97	3005,52
453,43	3008,75
453,89	3008,32
454,35	3007,35
454,81	3007,72
455,26	3007,82
455,72	3007,70
456,18	3007,82
456,64	3006,85
457,10	3007,32
457,56	3008,45
458,01	3007,00
458,47	3007,92
458,93	3006,45
459,39	3006,38
459,85	3006,75
460,30	3006,98
460,76	3009,25
461,22	3007,02
461,68	3007,58
462,14	3008,18
462,59	3007,40
463,05	3007,82
463,51	3008,70
463,97	3008,02
464,43	3007,95
464,88	3008,75
465,34	3007,10
465,80	3008,38
466,26	3006,68
466,71	3007,58
467,17	3006,78
467,63	3007,90
468,09	3007,50
468,54	3008,30
469,00	3007,60
469,46	3006,45
469,92	3008,20
470,37	3008,08
470,83	3006,92
471,29	3007,82
471,75	3009,32
472,20	3006,70
472,66	3008,82
473,12	3006,50
473,58	3007,92
474,03	3007,52
474,49	3007,62
474,95	3007,42
475,40	3007,70
475,86	3008,38
476,32	3007,10
476,78	3008,92
477,23	3008,60
477,69	3007,30
478,15	3007,32
478,60	3008,28
479,06	3007,90
479,52	3007,80
479,97	3007,92
480,43	3007,12
480,89	3007,90
481,34	3007,20
481,80	3009,25
482,26	3008,32
482,71	3007,50
483,17	3007,32
483,63	3006,25
484,08	3010,00
484,54	3008,42
485,00	3007,25
485,45	3006,72
485,91	3007,00
486,37	3007,82
486,82	3007,22
487,28	3009,45
487,74	3006,12
488,19	3008,85
488,65	3007,98
489,10	3006,25
489,56	3006,75
490,02	3008,32
490,47	3007,40
490,93	3007,40
491,39	3007,15
491,84	3007,60
492,30	3008,55
492,75	3009,60
493,21	3008,08
493,67	3008,15
494,12	3004,65
494,58	3007,30
495,03	3004,40
495,49	3005,92
495,95	3008,58
496,40	3006,28
496,86	3007,05
497,31	3008,45
497,77	3006,58
498,23	3007,38
498,68	3006,10
499,14	3007,78
499,59	3006,60
500,05	3006,72
500,50	3005,80
500,96	3009,65
501,41	3007,62
501,87	3007,20
502,33	3006,88
502,78	3008,32
503,24	3007,38
503,69	3007,95
504,15	3006,88
504,60	3008,15
505,06	3008,72
505,51	3008,15
505,97	3009,70
506,42	3006,30
506,88	3008,60
507,33	3006,50
507,79	3010,25
508,24	3007,25
508,70	3007,18
509,15	3006,65
509,61	3008,65
510,06	3007,98
510,52	3008,70
510,97	3007,45
511,43	3008,00
511,88	3007,28
512,34	3006,48
512,79	3008,50
513,25	3008,58
513,70	3005,68
514,16	3008,68
514,61	3008,68
515,07	3006,92
515,52	3007,60
515,98	3008,28
516,43	3007,12
516,89	3006,68
517,34	3005,22
517,80	3008,22
518,25	3007,15
518,70	3009,08
519,16	3008,98
519,61	3009,58
520,07	3007,32
520,52	3005,08
520,98	3008,02
521,43	3007,10
521,89	3005,35
522,34	3008,08
522,79	3008,30
523,25	3005,25
523,70	3008,82
524,16	3008,40
524,61	3010,12
525,06	3010,02
525,52	3008,35
525,97	3007,82
526,43	3010,98
526,88	3008,10
527,33	3007,18
527,79	3005,55
528,24	3006,62
528,70	3006,82
529,15	3007,95
529,60	3007,15
530,06	3008,02
530,51	3007,35
530,97	3009,60
531,42	3009,18
531,87	3007,65
532,33	3008,50
532,78	3008,65
533,23	3009,45
533,69	3008,45
534,14	3007,12
534,59	3008,90
535,05	3008,28
535,50	3006,20
535,96	3009,08
536,41	3008,30
536,86	3006,68
537,32	3008,40
537,77	3006,90
538,22	3009,45
538,68	3006,58
539,13	3007,68
539,58	3009,40
540,03	3007,50
540,49	3007,95
540,94	3006,82
541,39	3008,25
541,85	3006,90
542,30	3007,98
542,75	3006,08
543,21	3006,75
543,66	3006,00
544,11	3007,88
544,57	3007,12
545,02	3006,82
545,47	3008,20
545,92	3007,55
546,38	3009,15
546,83	3009,08
547,28	3012,80
547,73	3006,92
548,19	3008,98
548,64	3006,90
549,09	3006,88
549,55	3007,20
550,00	3007,45
550,45	3005,62
550,90	3009,35
551,36	3005,72
551,81	3008,32
552,26	3009,62
552,71	3007,62
553,17	3007,35
553,62	3008,70
554,07	3008,95
554,52	3006,75
554,97	3006,00
555,43	3007,20
555,88	3006,80
556,33	3006,42
556,78	3007,70
557,24	3009,62
557,69	3007,88
558,14	3008,82
558,59	3006,80
559,04	3009,00
559,50	3009,15
559,95	3006,35
560,40	3007,02
560,85	3006,28
561,30	3008,58
561,76	3007,12
562,21	3007,38
562,66	3006,75
563,11	3008,08
563,56	3008,30
564,01	3008,80
564,47	3007,12
564,92	3008,28
565,37	3009,10
565,82	3008,55
566,27	3007,18
566,72	3007,58
567,18	3006,68
567,63	3006,75
568,08	3009,02
568,53	3009,28
568,98	3008,90
569,43	3006,15
569,88	3006,88
570,34	3008,40
570,79	3008,88
571,24	3008,18
571,69	3006,78
572,14	3006,90
572,59	3008,22
573,04	3007,05
573,49	3009,10
573,94	3007,68
574,40	3006,40
574,85	3009,02
575,30	3008,25
575,75	3008,38
576,20	3008,28
576,65	3008,60
577,10	3007,22
577,55	3008,10
578,00	3008,55
578,45	3008,68
578,91	3007,90
579,36	3009,18
579,81	3007,18
580,26	3006,88
580,71	3008,10
581,16	3008,92
581,61	3007,52
582,06	3009,28
582,51	3006,75
582,96	3008,52
583,41	3007,48
583,86	3007,85
584,31	3008,18
584,76	3007,75
585,21	3007,22
585,66	3008,92
586,11	3009,10
586,56	3007,18
587,01	3009,30
587,46	3007,98
587,92	3007,32
588,37	3009,05
588,82	3008,08
589,27	3007,28
589,72	3006,38
590,17	3008,55
590,62	3007,70
591,07	3007,32
591,52	3008,95
591,97	3006,78
592,42	3010,98
592,87	3008,38
593,32	3008,40
593,77	3007,20
594,22	3007,92
594,67	3009,28
595,12	3006,52
595,56	3009,15
596,01	3006,90
596,46	3007,40
596,91	3008,55
597,36	3008,82
597,81	3007,00
598,26	3005,60
598,71	3008,42
599,16	3007,28
599,61	3008,60
600,06	3007,52
600,51	3009,18
600,96	3007,48
601,41	3007,80
601,86	3008,12
602,31	3008,32
602,76	3006,48
603,21	3009,75
603,66	3008,22
604,11	3008,20
604,55	3008,28
605,00	3006,32
605,45	3006,35
605,90	3009,18
606,35	3008,02
606,80	3008,40
607,25	3007,98
607,70	3007,38
608,15	3007,98
608,60	3006,52
609,04	3011,78
609,49	3007,85
609,94	3007,80
610,39	3007,65
610,84	3007,00
611,29	3009,85
611,74	3008,00
612,19	3008,75
612,64	3008,12
613,08	3006,52
613,53	3008,60
613,98	3007,25
614,43	3007,02
614,88	3007,72
615,33	3007,08
615,78	3010,05
616,22	3009,42
616,67	3007,45
617,12	3007,45
617,57	3008,35
618,02	3006,62
618,47	3010,35
618,91	3009,75
619,36	3008,00
619,81	3010,92
620,26	3006,98
620,71	3007,32
621,16	3007,18
621,60	3007,85
622,05	3007,75
622,50	3007,28
622,95	3007,95
623,40	3007,20
623,84	3007,70
624,29	3008,85
624,74	3005,75
625,19	3006,28
625,64	3007,08
626,08	3008,28
626,53	3007,90
626,98	3007,80
627,43	3007,72
627,87	3009,25
628,32	3008,08
628,77	3009,32
629,22	3009,18
629,66	3007,20
630,11	3005,80
630,56	3009,98
631,01	3006,80
631,46	3007,88
631,90	3007,88
632,35	3005,82
632,80	3008,10
633,25	3008,55
633,69	3007,60
634,14	3007,98
634,59	3008,25
635,03	3007,00
635,48	3006,90
635,93	3007,30
636,38	3007,88
636,82	3008,68
637,27	3009,48
637,72	3008,58
638,16	3007,80
638,61	3008,45
639,06	3007,32
639,51	3007,42
639,95	3008,25
640,40	3007,45
640,85	3007,88
641,29	3008,05
641,74	3008,15
642,19	3006,85
642,63	3009,25
643,08	3007,25
643,53	3007,00
643,97	3008,58
644,42	3009,05
644,87	3008,68
645,31	3007,00
645,76	3007,52
646,21	3006,20
646,65	3007,52
647,10	3008,92
647,55	3006,15
647,99	3007,55
648,44	3006,80
648,89	3006,15
649,33	3007,92
649,78	3009,20
650,23	3007,00
650,67	3007,02
651,12	3007,92
651,56	3006,00
652,01	3007,50
652,46	3007,50
652,90	3008,65
653,35	3007,92
653,80	3007,62
654,24	3007,38
654,69	3006,80
655,13	3008,05
655,58	3007,12
656,03	3012,18
656,47	3006,42
656,92	3006,65
657,36	3008,02
657,81	3006,50
658,26	3007,88
658,70	3006,98
659,15	3006,72
659,59	3008,42
660,04	3007,25
660,48	3007,52
660,93	3007,02
661,38	3007,90
661,82	3007,95
662,27	3006,65
662,71	3007,68
663,16	3006,72
663,60	3009,50
664,05	3008,10
664,49	3006,62
664,94	3006,58
665,38	3012,02
665,83	3007,58
666,28	3007,22
666,72	3007,80
667,17	3007,42
667,61	3006,62
668,06	3006,88
668,50	3006,12
668,95	3008,75
669,39	3005,68
669,84	3005,82
670,28	3008,88
670,73	3005,85
671,17	3006,92
671,62	3006,70
672,06	3007,15
672,51	3009,42
672,95	3011,05
673,40	3009,10
673,84	3007,80
674,29	3008,35
674,73	3007,18
675,18	3009,68
675,62	3004,78
676,07	3006,18
676,51	3008,25
676,95	3006,30
677,40	3009,52
677,84	3008,80
678,29	3008,60
678,73	3007,42
679,18	3008,92
679,62	3009,68
680,07	3006,10
680,51	3008,20
680,96	3006,92
681,40	3007,02
681,84	3006,55
682,29	3007,18
682,73	3007,78
683,18	3006,68
683,62	3009,80
684,07	3006,35
684,51	3006,02
684,95	3007,80
685,40	3006,60
685,84	3006,72
686,29	3007,40
686,73	3006,42
687,17	3006,08
687,62	3006,25
688,06	3008,05
688,51	3007,62
688,95	3007,25
689,39	3007,75
689,84	3007,25
690,28	3008,18
690,73	3006,78
691,17	3006,95
691,61	3006,08
692,06	3007,32
692,50	3008,18
692,94	3005,58
693,39	3008,05
693,83	3005,68
694,27	3010,10
694,72	3008,98
695,16	3005,35
695,60	3006,52
696,05	3008,32
696,49	3005,85
696,94	3006,28
697,38	3007,08
697,82	3005,62
698,27	3007,12
698,71	3007,50
699,15	3007,52
699,59	3007,10
700,04	3008,05
700,48	3010,08
700,92	3006,48
701,37	3007,18
701,81	3009,22
702,25	3008,15
702,70	3007,30
703,14	3007,25
703,58	3006,85
704,03	3008,85
704,47	3007,15
704,91	3006,30
705,35	3006,22
705,80	3008,15
706,24	3009,30
706,68	3011,85
707,13	3008,38
707,57	3009,15
708,01	3005,98
708,45	3006,05
708,90	3007,62
709,34	3007,15
709,78	3006,22
710,22	3009,30
710,67	3008,92
711,11	3008,95
711,55	3006,52
711,99	3008,72
712,44	3007,62
712,88	3007,18
713,32	3007,92
713,76	3008,72
714,21	3007,88
714,65	3006,05
715,09	3008,45
715,53	3008,02
715,97	3006,32
716,42	3007,20
716,86	3007,52
717,30	3007,68
717,74	3006,35
718,18	3008,30
718,63	3007,95
719,07	3006,82
719,51	3008,28
719,95	3008,90
720,39	3007,28
720,84	3008,05
721,28	3008,70
721,72	3006,90
722,16	3005,72
722,60	3006,00
723,04	3008,70
723,49	3008,60
723,93	3006,92
724,37	3005,85
724,81	3006,25
725,25	3008,18
725,69	3007,15
726,14	3007,72
726,58	3005,45
727,02	3007,28
727,46	3008,02
727,90	3006,82
728,34	3005,35
728,78	3007,65
729,23	3005,80
729,67	3006,35
730,11	3006,40
730,55	3009,02
730,99	3007,08
731,43	3006,52
731,87	3008,22
732,31	3007,02
732,76	3007,75
733,20	3008,30
733,64	3007,68
734,08	3009,88
734,52	3007,40
734,96	3008,02
735,40	3007,35
735,84	3008,10
736,28	3007,20
736,72	3006,30
737,16	3006,55
737,61	3006,82
738,05	3008,85
738,49	3007,98
738,93	3006,22
739,37	3008,88
739,81	3008,15
740,25	3007,25
740,69	3010,02
741,13	3006,38
741,57	3008,80
742,01	3007,00
742,45	3007,72
742,89	3007,55
743,33	3007,45
743,77	3006,15
744,21	3007,78
744,65	3008,90
745,09	3006,98
745,53	3005,48
745,98	3009,08
746,42	3007,75
746,86	3006,00
747,30	3007,20
747,74	3007,02
748,18	3005,65
748,62	3007,30
749,06	3008,75
749,50	3008,78
749,94	3006,20
750,38	3009,62
750,82	3007,65
751,26	3006,48
751,70	3007,15
752,14	3006,25
752,58	3007,15
753,02	3007,65
753,45	3006,95
753,89	3007,50
754,33	3010,60
754,77	3006,88
755,21	3009,18
755,65	3006,92
756,09	3007,58
756,53	3006,98
756,97	3006,62
757,41	3009,48
757,85	3007,52
758,29	3006,15
758,73	3008,65
759,17	3006,50
759,61	3005,65
760,05	3008,08
760,49	3008,28
760,93	3008,92
761,37	3007,35
761,80	3008,18
762,24	3006,82
762,68	3007,00
763,12	3007,60
763,56	3007,58
764,00	3006,65
764,44	3005,82
764,88	3007,45
765,32	3006,35
765,76	3009,30
766,20	3007,85
766,63	3006,55
767,07	3007,45
767,51	3008,15
767,95	3009,35
768,39	3006,98
768,83	3006,82
769,27	3007,68
769,71	3008,72
770,14	3006,32
770,58	3006,78
771,02	3007,75
771,46	3006,62
771,90	3008,30
772,34	3007,32
772,78	3006,98
773,21	3007,48
773,65	3008,70
774,09	3007,05
774,53	3007,70
774,97	3006,95
775,41	3006,85
775,84	3007,72
776,28	3008,88
776,72	3006,48
777,16	3006,50
777,60	3007,50
778,04	3007,18
778,47	3006,48
778,91	3007,42
779,35	3005,98
779,79	3006,30
780,23	3007,85
780,66	3006,12
781,10	3007,50
781,54	3006,62
781,98	3008,05
782,42	3007,58
782,85	3007,25
783,29	3007,80
783,73	3009,15
784,17	3008,25
784,61	3008,15
785,04	3008,30
785,48	3007,75
785,92	3007,78
786,36	3005,28
786,79	3006,58
787,23	3007,30
787,67	3006,22
788,11	3007,85
788,54	3008,02
788,98	3006,40
789,42	3007,32
789,86	3006,90
790,29	3006,30
790,73	3008,92
791,17	3007,58
791,60	3007,38
792,04	3007,52
792,48	3008,35
792,92	3007,15
793,35	3006,25
793,79	3008,58
794,23	3008,12
794,67	3007,45
795,10	3006,75
795,54	3008,72
795,98	3007,38
796,41	3008,20
796,85	3005,58
797,29	3010,55
797,72	3008,68
798,16	3004,98
798,60	3008,32
799,03	3005,95
799,47	3006,60
799,91	3008,50
800,34	3007,15
800,78	3007,50
801,22	3007,22
801,65	3007,45
802,09	3007,28
802,53	3007,82
802,96	3007,88
803,40	3005,70
803,84	3008,55
804,27	3006,95
804,71	3006,10
805,15	3007,62
805,58	3008,35
806,02	3005,92
806,46	3007,60
806,89	3009,58
807,33	3007,85
807,76	3007,30
808,20	3007,05
808,64	3007,65
809,07	3008,60
809,51	3009,52
809,95	3010,05
810,38	3008,80
810,82	3009,25
811,25	3006,88
811,69	3008,52
812,13	3006,70
812,56	3008,42
813,00	3007,88
813,43	3007,50
813,87	3006,95
814,30	3007,80
814,74	3007,72
815,18	3010,38
815,61	3007,35
816,05	3006,55
816,48	3006,92
816,92	3008,42
817,35	3009,02
817,79	3008,00
818,23	3008,45
818,66	3008,50
819,10	3007,32
819,53	3007,22
819,97	3008,00
820,40	3006,95
820,84	3007,95
821,27	3007,80
821,71	3008,20
822,14	3006,88
822,58	3009,15
823,01	3007,42
823,45	3006,60
823,88	3008,80
824,32	3006,25
824,75	3008,58
825,19	3007,68
825,63	3008,92
826,06	3005,85
826,50	3008,55
826,93	3007,10
827,37	3005,70
827,80	3009,65
828,23	3006,72
828,67	3008,15
829,10	3007,48
829,54	3007,75
829,97	3006,10
830,41	3005,80
830,84	3008,42
831,28	3007,82
831,71	3007,88
832,15	3006,88
832,58	3008,00
833,02	3006,48
833,45	3008,32
833,89	3007,50
834,32	3006,85
834,75	3010,08
835,19	3007,78
835,62	3008,08
836,06	3005,95
836,49	3006,75
836,93	3006,80
837,36	3009,20
837,79	3007,35
838,23	3007,52
838,66	3006,18
839,10	3009,25
839,53	3005,98
839,97	3007,48
840,40	3006,62
840,83	3009,25
841,27	3006,98
841,70	3007,22
842,14	3007,82
842,57	3007,30
843,00	3008,18
843,44	3009,35
843,87	3007,90
844,31	3010,38
844,74	3006,42
845,17	3007,05
845,61	3006,60
846,04	3006,25
846,47	3007,45
846,91	3008,40
847,34	3009,00
847,77	3007,95
848,21	3005,48
848,64	3007,85
849,08	3006,60
849,51	3007,80
849,94	3006,48
850,38	3007,48
850,81	3006,95
851,24	3006,68
851,68	3007,32
852,11	3007,50
852,54	3008,92
852,98	3007,95
853,41	3009,45
853,84	3008,15
854,28	3009,92
854,71	3006,88
855,14	3008,25
855,57	3008,45
856,01	3006,12
856,44	3006,55
856,87	3006,90
857,31	3006,80
857,74	3008,92
858,17	3005,38
858,61	3007,95
859,04	3008,62
859,47	3008,90
859,90	3007,65
860,34	3007,90
860,77	3007,50
861,20	3007,38
861,63	3007,45
862,07	3006,50
862,50	3006,25
862,93	3007,68
863,37	3008,10
863,80	3005,52
864,23	3006,52
864,66	3005,62
865,10	3006,42
865,53	3007,70
865,96	3006,15
866,39	3008,68
866,82	3008,30
867,26	3005,82
867,69	3008,12
868,12	3009,15
868,55	3005,15
868,99	3007,32
869,42	3006,00
869,85	3009,32
870,28	3007,50
870,71	3007,58
871,15	3007,30
871,58	3004,98
872,01	3008,35
872,44	3006,78
872,87	3008,95
873,31	3009,42
873,74	3007,00
874,17	3007,45
874,60	3008,32
875,03	3005,70
875,47	3007,25
875,90	3006,80
876,33	3007,58
876,76	3008,55
877,19	3007,92
877,62	3007,42
878,06	3005,98
878,49	3009,12
878,92	3007,50
879,35	3007,50
879,78	3007,82
880,21	3007,60
880,64	3007,95
881,08	3007,10
881,51	3006,90
881,94	3007,68
882,37	3008,80
882,80	3007,25
883,23	3005,95
883,66	3007,58
884,09	3007,75
884,53	3007,78
884,96	3006,02
885,39	3005,95
885,82	3007,60
886,25	3007,42
886,68	3005,22
887,11	3009,05
887,54	3006,00
887,97	3007,45
888,40	3008,85
888,84	3006,48
889,27	3007,42
889,70	3008,42
890,13	3007,12
890,56	3007,82
890,99	3008,02
891,42	3005,50
891,85	3009,30
892,28	3006,30
892,71	3007,90
893,14	3006,55
893,57	3008,32
894,00	3007,32
894,43	3006,70
894,86	3008,18
895,29	3007,18
895,73	3007,50
896,16	3008,00
896,59	3007,88
897,02	3007,55
897,45	3007,32
897,88	3006,60
898,31	3005,95
898,74	3006,60
899,17	3007,28
899,60	3006,52
900,03	3007,72
900,46	3006,85
900,89	3006,65
901,32	3008,10
901,75	3007,48
902,18	3007,00
902,61	3006,82
903,04	3008,50
903,47	3007,72
903,90	3006,70
904,33	3009,90
904,76	3009,58
905,19	3007,75
905,62	3006,58
906,05	3008,05
906,48	3007,15
906,91	3007,45
907,34	3007,68
907,76	3006,78
908,19	3007,00
908,62	3008,65
909,05	3006,22
909,48	3008,68
909,91	3008,20
910,34	3006,60
910,77	3010,18
911,20	3008,35
911,63	3006,88
912,06	3007,55
912,49	3007,55
912,92	3007,42
913,35	3006,88
913,78	3005,85
914,21	3005,88
914,63	3006,90
915,06	3007,90
915,49	3007,92
915,92	3008,45
916,35	3008,22
916,78	3007,08
917,21	3006,32
917,64	3007,52
918,07	3007,55
918,50	3007,58
918,92	3006,38
919,35	3010,15
919,78	3006,40
920,21	3008,85
920,64	3006,80
921,07	3008,75
921,50	3006,80
921,93	3008,15
922,35	3008,82
922,78	3008,15
923,21	3008,50
923,64	3007,85
924,07	3007,55
924,50	3006,50
924,92	3004,35
925,35	3007,82
925,78	3008,65
926,21	3007,78
926,64	3006,70
927,07	3007,25
927,49	3007,65
927,92	3008,32
928,35	3008,88
928,78	3007,12
929,21	3007,38
929,64	3006,68
930,06	3009,82
930,49	3008,18
930,92	3006,65
931,35	3007,85
931,78	3007,55
932,20	3006,72
932,63	3008,40
933,06	3006,65
933,49	3006,60
933,92	3006,98
934,34	3009,38
934,77	3006,72
935,20	3009,08
935,63	3007,78
936,05	3008,32
936,48	3009,12
936,91	3007,22
937,34	3007,62
937,76	3006,45
938,19	3007,05
938,62	3008,10
939,05	3008,52
939,47	3005,80
939,90	3007,98
940,33	3006,78
940,76	3009,18
941,18	3006,92
941,61	3006,85
942,04	3008,32
942,47	3007,42
942,89	3010,10
943,32	3007,22
943,75	3007,98
944,17	3007,40
944,60	3008,22
945,03	3008,70
945,46	3005,12
945,88	3006,40
946,31	3007,70
946,74	3006,85
947,16	3009,12
947,59	3008,00
948,02	3006,48
948,44	3008,15
948,87	3008,42
949,30	3008,20
949,72	3007,55
950,15	3007,50
950,58	3006,12
951,00	3005,82
951,43	3007,12
951,86	3010,62
952,28	3007,88
952,71	3007,35
953,14	3006,88
953,56	3007,88
953,99	3007,95
954,42	3008,48
954,84	3007,72
955,27	3010,12
955,70	3006,68
956,12	3007,50
956,55	3005,82
956,98	3007,75
957,40	3007,60
957,83	3007,75
958,25	3006,88
958,68	3007,25
959,11	3010,30
959,53	3004,85
959,96	3008,22
960,38	3006,88
960,81	3007,15
961,24	3007,78
961,66	3007,48
962,09	3006,42
962,51	3006,32
962,94	3007,92
963,37	3007,10
963,79	3008,90
964,22	3009,72
964,64	3007,30
965,07	3006,65
965,49	3005,95
965,92	3007,78
966,35	3005,85
966,77	3008,18
967,20	3005,98
967,62	3005,92
968,05	3007,68
968,47	3008,22
968,90	3007,88
969,32	3008,60
969,75	3008,20
970,17	3011,62
970,60	3006,78
971,03	3008,45
971,45	3008,22
971,88	3007,25
972,30	3007,22
972,73	3007,78
973,15	3008,18
973,58	3007,48
974,00	3007,28
974,43	3006,60
974,85	3006,55
975,28	3007,88
975,70	3006,98
976,13	3007,52
976,55	3006,10
976,98	3007,35
977,40	3006,40
977,83	3007,10
978,25	3007,10
978,68	3006,82
979,10	3008,30
979,53	3007,78
979,95	3007,38
980,37	3006,40
980,80	3006,32
981,22	3008,60
981,65	3008,45
982,07	3006,35
982,50	3008,62
982,92	3008,85
983,35	3009,10
983,77	3008,20
984,20	3007,55
984,62	3006,60
985,04	3007,20
985,47	3008,25
985,89	3009,88
986,32	3006,10
986,74	3006,85
987,17	3006,20
987,59	3008,38
988,01	3008,10
988,44	3007,05
988,86	3006,60
989,29	3008,52
989,71	3007,12
990,13	3006,28
990,56	3007,80
990,98	3006,90
991,41	3006,95
991,83	3006,90
992,25	3007,68
992,68	3008,38
993,10	3007,75
993,53	3006,50
993,95	3007,18
994,37	3007,50
994,80	3006,65
995,22	3006,62
995,64	3007,22
996,07	3007,40
996,49	3007,58
996,91	3009,20
997,34	3007,45
997,76	3005,45
998,18	3006,22
998,61	3009,18
999,03	3008,22
999,45	3006,18
999,88	3009,10
1000,30	3006,85
1000,72	3008,88
1001,15	3008,62
1001,57	3006,90
1001,99	3009,30
1002,42	3006,70
1002,84	3007,58
1003,26	3009,55
1003,69	3006,35
1004,11	3008,20
1004,53	3008,12
1004,96	3007,10
1005,38	3007,22
1005,80	3007,10
1006,22	3008,20
1006,65	3008,02
1007,07	3007,20
1007,49	3007,02
1007,92	3007,45
1008,34	3006,88
1008,76	3008,10
1009,18	3006,20
1009,61	3008,08
1010,03	3005,58
1010,45	3010,58
1010,87	3008,40
1011,30	3007,05
1011,72	3009,28
1012,14	3009,22
1012,56	3007,60
1012,99	3006,92
1013,41	3007,05
1013,83	3006,60
1014,25	3007,42
1014,68	3007,02
1015,10	3006,95
1015,52	3008,30
1015,94	3006,18
1016,37	3008,58
1016,79	3007,08
1017,21	3007,05
1017,63	3006,58
1018,05	3007,50
1018,48	3006,90
1018,90	3007,40
1019,32	3007,00
1019,74	3005,90
1020,16	3010,30
1020,59	3009,20
1021,01	3007,68
1021,43	3007,08
1021,85	3006,20
1022,27	3007,42
1022,69	3008,55
1023,12	3007,58
1023,54	3007,45
1023,96	3011,25
1024,38	3007,98
1024,80	3008,15
1025,22	3007,85
1025,65	3006,22
1026,07	3009,20
1026,49	3006,32
1026,91	3009,20
1027,33	3007,28
1027,75	3008,35
1028,17	3009,20
1028,60	3007,08
1029,02	3008,32
1029,44	3008,22
1029,86	3007,15
1030,28	3010,02
1030,70	3006,52
1031,12	3007,35
1031,54	3007,50
1031,97	3010,42
1032,39	3005,92
1032,81	3007,98
1033,23	3008,48
1033,65	3006,95
1034,07	3008,65
1034,49	3006,82
1034,91	3007,82
1035,33	3007,95
1035,75	3008,15
1036,18	3006,68
1036,60	3008,35
1037,02	3005,88
1037,44	3009,68
1037,86	3007,70
1038,28	3005,78
1038,70	3008,28
1039,12	3008,62
1039,54	3007,35
1039,96	3010,80
1040,38	3007,95
1040,80	3007,12
1041,22	3005,58
1041,64	3007,60
1042,06	3006,80
1042,48	3009,08
1042,90	3008,18
1043,32	3005,98
1043,74	3008,58
1044,17	3008,62
1044,59	3009,08
1045,01	3008,02
1045,43	3007,08
1045,85	3006,92
1046,27	3007,68
1046,69	3008,38
1047,11	3008,90
1047,53	3005,95
1047,95	3008,12
1048,37	3008,20
1048,79	3007,60
1049,21	3009,62
1049,63	3007,70
1050,05	3009,50
1050,47	3007,65
1050,89	3007,35
1051,31	3008,10
1051,72	3008,10
1052,14	3009,00
1052,56	3009,02
1052,98	3007,70
1053,40	3009,28
1053,82	3006,08
1054,24	3007,38
1054,66	3007,15
1055,08	3007,42
1055,50	3006,52
1055,92	3008,08
1056,34	3007,88
1056,76	3008,85
1057,18	3008,55
1057,60	3007,58
1058,02	3007,02
1058,44	3013,00
1058,86	3005,65
1059,28	3008,18
1059,69	3007,62
1060,11	3008,68
1060,53	3008,75
1060,95	3007,15
1061,37	3007,52
1061,79	3006,88
1062,21	3007,05
1062,63	3008,32
1063,05	3009,02
1063,47	3008,92
1063,88	3007,40
1064,30	3007,18
1064,72	3009,45
1065,14	3006,88
1065,56	3007,72
1065,98	3005,22
1066,40	3006,75
1066,82	3007,50
1067,23	3008,25
1067,65	3008,62
1068,07	3006,70
1068,49	3008,40
1068,91	3008,08
1069,33	3009,90
1069,75	3007,75
1070,16	3006,95
1070,58	3008,92
1071,00	3009,22
1071,42	3009,32
1071,84	3006,90
1072,26	3007,20
1072,67	3007,35
1073,09	3005,25
1073,51	3007,00
1073,93	3008,15
1074,35	3007,32
1074,77	3005,68
1075,18	3006,40
1075,60	3008,00
1076,02	3008,22
1076,44	3006,95
1076,86	3007,12
1077,27	3006,15
1077,69	3009,50
1078,11	3007,45
1078,53	3007,60
1078,94	3009,98
1079,36	3005,65
1079,78	3007,48
1080,20	3007,55
1080,62	3008,98
1081,03	3008,08
1081,45	3007,02
1081,87	3007,48
1082,29	3007,62
1082,70	3008,78
1083,12	3007,80
1083,54	3009,02
1083,96	3006,18
1084,37	3010,42
1084,79	3007,52
1085,21	3006,32
1085,63	3008,20
1086,04	3007,45
1086,46	3007,70
1086,88	3009,30
1087,30	3007,30
1087,71	3008,48
1088,13	3052,22
1088,55	3007,42
1088,96	3007,48
1089,38	3007,22
1089,80	3007,52
1090,22	3007,78
1090,63	3007,40
1091,05	3006,15
1091,47	3008,78
1091,88	3005,98
1092,30	3007,05
1092,72	3008,48
1093,13	3006,85
1093,55	3008,08
1093,97	3008,40
1094,38	3007,38
1094,80	3006,15
1095,22	3008,22
1095,63	3007,15
1096,05	3007,05
1096,47	3007,35
1096,88	3007,35
1097,30	3008,32
1097,72	3008,48
1098,13	3008,82
1098,55	3006,85
1098,97	3008,55
1099,38	3007,18
1099,80	3007,60
1100,21	3006,45
1100,63	3006,15
1101,05	3008,02
1101,46	3007,28
1101,88	3006,58
1102,30	3007,65
1102,71	3006,18
1103,13	3008,18
1103,54	3005,98
1103,96	3008,55
1104,38	3009,75
1104,79	3005,72
1105,21	3006,55
1105,62	3006,68
1106,04	3006,62
1106,46	3006,95
1106,87	3004,50
1107,29	3006,80
1107,70	3008,30
1108,12	3004,58
1108,54	3007,38
1108,95	3007,40
1109,37	3006,95
1109,78	3005,52
1110,20	3007,95
1110,61	3007,08
1111,03	3007,08
1111,44	3007,08
1111,86	3007,08
1112,28	3007,08
1112,69	3007,08
1113,11	3007,08
1113,52	3007,08
1113,94	3007,08
1114,35	3007,08
1114,77	3007,08
1115,18	3007,08
1115,60	3007,08
1116,01	3007,08
1116,43	3007,08
1116,84	3007,08
1117,26	3007,08
1117,67	3007,08
1118,09	3007,08
1118,50	3007,08
1118,92	3007,08
>>>>>End Processed Spectral Data<<<<<
