SpectraSuite Data File
++++++++++++++++++++++++++++++++++++
Date: Wed Nov 27 17:30:07 EET 2013
User: OO Maya
Dark Spectrum Present: No
Reference Spectrum Present: No
Number of Sampled Component Spectra: 1
Spectrometers: MAYP11278
Integration Time (usec): 1200000 (MAYP11278)
Spectra Averaged: 5 (MAYP11278)
Boxcar Smoothing: 0 (MAYP11278)
Correct for Electrical Dark: No (MAYP11278)
Strobe/Lamp Enabled: No (MAYP11278)
Correct for Detector Non-linearity: No (MAYP11278)
Correct for Stray Light: No (MAYP11278)
Number of Pixels in Processed Spectrum: 2068
>>>>>Begin Processed Spectral Data<<<<<
188,05	2295,40
188,53	2215,80
189,01	2182,60
189,49	2183,00
189,96	3529,20
190,44	3630,80
190,92	3675,00
191,40	3695,40
191,88	3792,40
192,36	3688,40
192,83	3651,80
193,31	3577,00
193,79	3686,40
194,27	3670,00
194,75	3749,40
195,23	3644,60
195,70	3771,40
196,18	3660,60
196,66	3686,60
197,14	3976,00
197,62	3664,40
198,09	3628,00
198,57	3658,20
199,05	3642,60
199,53	3718,60
200,01	3789,00
200,48	3659,40
200,96	3674,60
201,44	3772,00
201,92	3770,60
202,39	3757,20
202,87	3613,60
203,35	3740,40
203,83	3627,40
204,31	3787,20
204,78	3820,80
205,26	3669,20
205,74	3655,00
206,22	3844,00
206,69	3698,20
207,17	3745,20
207,65	3975,60
208,13	3729,20
208,60	3770,60
209,08	3670,20
209,56	3796,80
210,04	3769,00
210,51	3708,80
210,99	3695,60
211,47	3772,00
211,94	3699,20
212,42	3664,60
212,90	3907,60
213,38	3768,20
213,85	3657,60
214,33	3917,60
214,81	3741,80
215,29	3874,60
215,76	3763,80
216,24	3780,60
216,72	3809,40
217,19	3783,40
217,67	3656,60
218,15	3730,00
218,62	3835,00
219,10	3608,00
219,58	3687,60
220,05	3668,80
220,53	3724,00
221,01	4147,80
221,49	3703,40
221,96	3820,20
222,44	3693,60
222,92	3825,80
223,39	3700,60
223,87	3814,60
224,35	3725,60
224,82	3704,80
225,30	3649,20
225,78	3729,00
226,25	3669,40
226,73	3733,20
227,21	3847,40
227,68	3729,40
228,16	3785,00
228,63	3806,80
229,11	3795,20
229,59	3726,80
230,06	3757,80
230,54	3704,40
231,02	3805,20
231,49	3861,00
231,97	3776,60
232,45	3770,80
232,92	3664,80
233,40	3760,20
233,87	3775,40
234,35	4139,80
234,83	3787,80
235,30	3712,80
235,78	3710,40
236,25	3653,00
236,73	3837,60
237,21	3965,20
237,68	3706,60
238,16	3776,20
238,63	3783,00
239,11	3787,60
239,59	3757,40
240,06	3651,00
240,54	3817,40
241,01	3893,40
241,49	3770,60
241,96	3745,40
242,44	3860,20
242,92	3887,60
243,39	3655,60
243,87	3703,40
244,34	3848,40
244,82	3910,80
245,29	3752,20
245,77	3894,40
246,24	3883,20
246,72	3685,60
247,20	3776,60
247,67	3773,60
248,15	3788,80
248,62	3818,20
249,10	3616,20
249,57	3767,00
250,05	3831,60
250,52	3801,40
251,00	3897,80
251,47	3784,60
251,95	3967,00
252,42	3926,80
252,90	3712,80
253,37	3875,00
253,85	3774,80
254,32	3754,00
254,80	3801,00
255,27	3795,00
255,75	3855,40
256,22	3723,60
256,70	3780,60
257,17	3820,20
257,65	3849,40
258,12	4086,00
258,60	3787,00
259,07	3727,60
259,55	3787,40
260,02	3848,20
260,50	3951,00
260,97	3758,40
261,45	3726,40
261,92	3893,60
262,40	3686,60
262,87	3789,80
263,35	3754,00
263,82	3659,20
264,30	3845,60
264,77	3854,00
265,25	3707,40
265,72	3785,20
266,19	3788,00
266,67	3847,40
267,14	3732,00
267,62	3740,20
268,09	3801,00
268,57	3787,00
269,04	3622,80
269,51	3674,80
269,99	3726,80
270,46	3820,00
270,94	3869,80
271,41	3739,60
271,89	3759,80
272,36	3640,40
272,83	3639,00
273,31	3594,00
273,78	3755,20
274,26	4103,20
274,73	3837,20
275,20	3851,20
275,68	3688,80
276,15	3743,20
276,63	3808,20
277,10	3835,40
277,57	3668,20
278,05	3732,60
278,52	3648,00
279,00	4209,00
279,47	3721,40
279,94	3722,80
280,42	4183,60
280,89	3852,80
281,36	4081,40
281,84	3704,40
282,31	3893,40
282,78	3729,80
283,26	3761,60
283,73	3804,60
284,21	3675,00
284,68	3660,40
285,15	3823,80
285,63	3752,40
286,10	3802,60
286,57	3801,40
287,05	3637,40
287,52	3801,80
287,99	3913,20
288,47	3752,80
288,94	3839,40
289,41	3600,40
289,89	3928,20
290,36	3708,80
290,83	3799,60
291,30	3720,40
291,78	3842,40
292,25	3978,80
292,72	3708,20
293,20	3878,80
293,67	3740,60
294,14	3810,00
294,62	3817,80
295,09	3720,20
295,56	3777,60
296,03	3818,00
296,51	3956,40
296,98	3925,40
297,45	3856,80
297,93	3823,00
298,40	3817,80
298,87	3750,40
299,34	3927,60
299,82	3777,00
300,29	3832,40
300,76	3731,40
301,23	3869,00
301,71	3884,40
302,18	3872,80
302,65	3676,00
303,12	3846,20
303,60	3899,20
304,07	3723,40
304,54	3743,80
305,01	3696,00
305,49	3803,40
305,96	3828,60
306,43	3804,80
306,90	3839,20
307,38	3736,60
307,85	3731,80
308,32	3784,00
308,79	3745,60
309,27	3876,80
309,74	3877,60
310,21	3815,00
310,68	3806,00
311,15	3816,20
311,63	3732,60
312,10	3874,80
312,57	3777,60
313,04	3975,40
313,51	3726,40
313,99	3753,20
314,46	3762,80
314,93	3755,20
315,40	3714,80
315,87	3877,60
316,34	3834,60
316,82	3822,20
317,29	3842,60
317,76	3795,80
318,23	4073,20
318,70	3801,40
319,17	3758,00
319,65	3662,20
320,12	3839,20
320,59	3969,80
321,06	3842,20
321,53	3745,80
322,00	3605,80
322,48	3688,80
322,95	3943,60
323,42	3748,40
323,89	4027,80
324,36	3662,20
324,83	3800,80
325,30	3748,20
325,78	3750,20
326,25	3743,40
326,72	3722,20
327,19	3850,40
327,66	3816,20
328,13	3823,00
328,60	3798,60
329,07	3748,20
329,54	3729,60
330,02	3722,00
330,49	3692,20
330,96	3860,60
331,43	3809,40
331,90	3959,60
332,37	3688,80
332,84	3967,20
333,31	3829,80
333,78	3820,80
334,25	3891,00
334,72	3815,40
335,20	3831,00
335,67	4145,00
336,14	3681,40
336,61	3778,40
337,08	3738,40
337,55	3805,20
338,02	3724,80
338,49	3751,80
338,96	3933,20
339,43	3855,40
339,90	3702,80
340,37	3708,20
340,84	3694,60
341,31	3827,80
341,78	3865,80
342,25	3710,20
342,72	3818,40
343,19	3858,20
343,67	3782,40
344,14	3743,00
344,61	3787,00
345,08	3693,80
345,55	3779,60
346,02	3838,60
346,49	3730,40
346,96	3717,00
347,43	3952,40
347,90	3735,00
348,37	3891,60
348,84	3795,00
349,31	3660,20
349,78	3795,40
350,25	3869,20
350,72	3786,40
351,19	3721,20
351,66	3821,80
352,13	3987,20
352,60	3806,00
353,07	3754,20
353,54	3819,60
354,01	3840,20
354,48	3825,00
354,94	3875,00
355,41	3811,40
355,88	3934,20
356,35	3755,20
356,82	3969,40
357,29	3716,60
357,76	4034,40
358,23	3871,60
358,70	3694,40
359,17	3698,60
359,64	3786,80
360,11	3763,80
360,58	3889,00
361,05	3937,20
361,52	3773,80
361,99	3781,60
362,46	3802,60
362,93	3776,60
363,39	3800,80
363,86	4040,40
364,33	3864,20
364,80	3773,20
365,27	3878,60
365,74	3754,20
366,21	3688,40
366,68	4472,40
367,15	3801,60
367,62	5755,40
368,09	3606,40
368,55	3732,40
369,02	3885,60
369,49	3698,80
369,96	3864,80
370,43	3823,60
370,90	3760,60
371,37	3773,80
371,84	3844,80
372,31	3717,00
372,77	3669,60
373,24	3782,40
373,71	3824,20
374,18	3695,20
374,65	3718,80
375,12	3829,40
375,59	3667,60
376,05	3931,80
376,52	3756,40
376,99	3701,40
377,46	3664,80
377,93	3821,00
378,40	3792,20
378,86	3781,40
379,33	3784,20
379,80	3789,20
380,27	3830,60
380,74	3956,60
381,21	3790,40
381,67	3953,80
382,14	3943,80
382,61	3672,20
383,08	3830,40
383,55	3768,80
384,02	3878,20
384,48	3807,00
384,95	4359,20
385,42	3814,20
385,89	3730,20
386,36	3766,00
386,82	3975,40
387,29	3703,60
387,76	3654,20
388,23	3865,20
388,69	3836,20
389,16	3908,00
389,63	3711,60
390,10	3831,20
390,57	3812,00
391,03	3832,20
391,50	3821,80
391,97	3783,40
392,44	3831,00
392,90	3767,80
393,37	3746,60
393,84	4040,40
394,31	3794,00
394,77	3903,00
395,24	3719,60
395,71	3868,80
396,18	4321,60
396,64	3682,20
397,11	3855,40
397,58	3874,80
398,05	3715,60
398,51	3790,60
398,98	3741,40
399,45	3700,40
399,92	3926,20
400,38	3723,00
400,85	3795,40
401,32	3743,20
401,78	3851,80
402,25	3814,40
402,72	3804,00
403,18	3712,00
403,65	3986,60
404,12	3811,00
404,59	3938,60
405,05	3997,40
405,52	3911,20
405,99	3718,00
406,45	3878,80
406,92	3861,20
407,39	4026,00
407,85	3816,40
408,32	3829,80
408,79	3858,60
409,25	3737,60
409,72	3933,40
410,19	3715,40
410,65	3932,00
411,12	3748,20
411,59	3938,40
412,05	3786,60
412,52	3668,60
412,99	3861,40
413,45	3797,00
413,92	3846,40
414,39	3858,20
414,85	4013,20
415,32	3793,20
415,78	4001,00
416,25	3863,80
416,72	3859,80
417,18	4039,20
417,65	3872,20
418,12	3827,40
418,58	3870,60
419,05	3860,40
419,51	3938,20
419,98	3783,20
420,45	3925,60
420,91	3752,40
421,38	3836,40
421,84	3789,60
422,31	3895,60
422,78	3794,00
423,24	3832,80
423,71	3889,20
424,17	3957,40
424,64	3861,20
425,11	3943,00
425,57	3861,60
426,04	4016,20
426,50	3838,20
426,97	4004,40
427,43	3936,80
427,90	3968,60
428,37	3780,40
428,83	3976,20
429,30	3918,60
429,76	3869,60
430,23	3907,20
430,69	4247,60
431,16	3766,40
431,62	3870,60
432,09	4044,80
432,55	3991,20
433,02	3862,00
433,48	3826,20
433,95	3905,80
434,42	3857,00
434,88	3946,40
435,35	3791,00
435,81	3970,00
436,28	3923,20
436,74	3783,80
437,21	3988,00
437,67	3933,60
438,14	3924,80
438,60	3859,60
439,07	3897,00
439,53	4359,40
440,00	3952,80
440,46	4008,80
440,93	4043,60
441,39	3850,20
441,86	3890,40
442,32	4198,80
442,79	3847,20
443,25	3948,40
443,72	3967,20
444,18	3826,00
444,64	4136,40
445,11	4001,00
445,57	3962,00
446,04	3948,60
446,50	3990,40
446,97	3905,00
447,43	3992,80
447,90	3907,00
448,36	3924,20
448,83	4047,40
449,29	4020,40
449,75	3940,60
450,22	3881,00
450,68	3899,40
451,15	3935,80
451,61	3999,00
452,08	4057,00
452,54	3909,00
453,00	4112,60
453,47	3970,40
453,93	3970,00
454,40	3989,80
454,86	4049,40
455,32	3941,00
455,79	4015,60
456,25	4099,80
456,72	3957,80
457,18	4167,00
457,64	3999,40
458,11	4005,20
458,57	3917,00
459,04	4043,00
459,50	4021,00
459,96	4046,00
460,43	3965,20
460,89	3952,20
461,36	4180,20
461,82	4132,20
462,28	3987,20
462,75	3934,60
463,21	4180,40
463,67	4024,60
464,14	4045,40
464,60	4086,20
465,06	3963,20
465,53	4023,60
465,99	4165,40
466,45	4058,80
466,92	4151,60
467,38	4127,40
467,84	4054,80
468,31	4120,40
468,77	4109,40
469,23	4117,60
469,70	4027,20
470,16	4151,80
470,62	4158,60
471,09	4072,60
471,55	4106,80
472,01	4048,20
472,48	4114,00
472,94	4136,60
473,40	4301,40
473,87	4180,00
474,33	4139,80
474,79	4217,00
475,25	4116,60
475,72	4308,20
476,18	4252,80
476,64	4322,60
477,11	4263,20
477,57	4329,20
478,03	4505,20
478,49	4385,60
478,96	4486,00
479,42	4363,20
479,88	4642,60
480,35	4578,20
480,81	4559,40
481,27	4537,40
481,73	4631,20
482,20	4723,20
482,66	4680,40
483,12	4826,20
483,58	4789,80
484,05	4996,80
484,51	5293,20
484,97	5285,20
485,43	5363,80
485,89	5348,00
486,36	5616,00
486,82	5679,20
487,28	6056,80
487,74	6115,20
488,21	6334,40
488,67	6662,00
489,13	7004,20
489,59	7290,20
490,05	7686,40
490,52	7860,20
490,98	8410,40
491,44	8753,20
491,90	9267,60
492,36	9709,80
492,83	10581,00
493,29	11094,80
493,75	11789,60
494,21	12469,20
494,67	13253,40
495,14	14152,60
495,60	15064,80
496,06	16243,80
496,52	17247,40
496,98	18499,80
497,44	20137,40
497,91	21451,00
498,37	22815,00
498,83	24476,40
499,29	26262,40
499,75	28449,80
500,21	30287,20
500,67	32536,60
501,14	34940,80
501,60	37572,80
502,06	40427,60
502,52	43332,80
502,98	46611,80
503,44	49985,20
503,90	53708,40
504,37	57486,40
504,83	61716,60
505,29	64000,00
505,75	64000,00
506,21	64000,00
506,67	64000,00
507,13	64000,00
507,59	64000,00
508,05	64000,00
508,51	64000,00
508,98	64000,00
509,44	64000,00
509,90	64000,00
510,36	64000,00
510,82	64000,00
511,28	64000,00
511,74	64000,00
512,20	64000,00
512,66	64000,00
513,12	64000,00
513,58	64000,00
514,04	64000,00
514,51	64000,00
514,97	64000,00
515,43	64000,00
515,89	64000,00
516,35	64000,00
516,81	64000,00
517,27	64000,00
517,73	64000,00
518,19	64000,00
518,65	64000,00
519,11	64000,00
519,57	64000,00
520,03	64000,00
520,49	64000,00
520,95	64000,00
521,41	64000,00
521,87	64000,00
522,33	64000,00
522,79	64000,00
523,25	64000,00
523,71	64000,00
524,17	64000,00
524,63	64000,00
525,09	64000,00
525,55	64000,00
526,01	64000,00
526,47	64000,00
526,93	64000,00
527,39	64000,00
527,85	64000,00
528,31	64000,00
528,77	64000,00
529,23	64000,00
529,69	64000,00
530,15	64000,00
530,61	64000,00
531,07	64000,00
531,53	64000,00
531,99	64000,00
532,45	64000,00
532,91	64000,00
533,37	64000,00
533,83	64000,00
534,29	64000,00
534,75	64000,00
535,21	64000,00
535,67	64000,00
536,12	64000,00
536,58	64000,00
537,04	64000,00
537,50	64000,00
537,96	64000,00
538,42	64000,00
538,88	64000,00
539,34	64000,00
539,80	64000,00
540,26	64000,00
540,72	64000,00
541,18	64000,00
541,63	64000,00
542,09	64000,00
542,55	64000,00
543,01	64000,00
543,47	64000,00
543,93	64000,00
544,39	64000,00
544,85	64000,00
545,31	64000,00
545,76	64000,00
546,22	64000,00
546,68	64000,00
547,14	64000,00
547,60	64000,00
548,06	64000,00
548,52	64000,00
548,98	64000,00
549,43	64000,00
549,89	64000,00
550,35	64000,00
550,81	64000,00
551,27	64000,00
551,73	64000,00
552,19	64000,00
552,64	64000,00
553,10	64000,00
553,56	64000,00
554,02	64000,00
554,48	64000,00
554,93	64000,00
555,39	64000,00
555,85	64000,00
556,31	64000,00
556,77	64000,00
557,23	64000,00
557,68	64000,00
558,14	64000,00
558,60	64000,00
559,06	64000,00
559,52	64000,00
559,97	64000,00
560,43	64000,00
560,89	64000,00
561,35	64000,00
561,81	64000,00
562,26	64000,00
562,72	64000,00
563,18	64000,00
563,64	64000,00
564,09	64000,00
564,55	64000,00
565,01	64000,00
565,47	64000,00
565,92	64000,00
566,38	64000,00
566,84	64000,00
567,30	64000,00
567,75	64000,00
568,21	64000,00
568,67	64000,00
569,13	64000,00
569,58	64000,00
570,04	64000,00
570,50	64000,00
570,96	64000,00
571,41	64000,00
571,87	64000,00
572,33	64000,00
572,78	64000,00
573,24	64000,00
573,70	64000,00
574,16	64000,00
574,61	64000,00
575,07	64000,00
575,53	64000,00
575,98	64000,00
576,44	64000,00
576,90	64000,00
577,36	64000,00
577,81	64000,00
578,27	64000,00
578,73	64000,00
579,18	64000,00
579,64	64000,00
580,10	62731,80
580,55	61284,80
581,01	59703,20
581,47	58207,00
581,92	56781,60
582,38	55437,40
582,84	54061,60
583,29	52670,60
583,75	51509,40
584,21	50156,00
584,66	49125,80
585,12	47927,60
585,57	47077,00
586,03	45623,00
586,49	44562,40
586,94	43470,60
587,40	42543,60
587,86	41577,80
588,31	40484,60
588,77	39634,00
589,22	38720,60
589,68	37738,80
590,14	36907,20
590,59	36203,40
591,05	35201,20
591,51	34374,60
591,96	33766,20
592,42	32748,00
592,87	32152,40
593,33	31231,20
593,78	30697,20
594,24	29847,00
594,70	29241,20
595,15	28584,60
595,61	27779,20
596,06	27167,60
596,52	26727,60
596,98	26117,60
597,43	25433,20
597,89	24765,60
598,34	24109,80
598,80	23707,80
599,25	23341,00
599,71	22543,00
600,16	22176,40
600,62	21738,00
601,08	21248,60
601,53	20825,80
601,99	20151,00
602,44	20088,00
602,90	19310,40
603,35	18952,00
603,81	18441,80
604,26	17959,80
604,72	17772,40
605,17	17342,00
605,63	17089,80
606,08	16568,80
606,54	16197,80
606,99	15935,60
607,45	15596,60
607,90	15286,00
608,36	15007,00
608,81	14673,00
609,27	14681,20
609,72	14223,80
610,18	13849,00
610,63	13543,20
611,09	13372,20
611,54	13051,20
612,00	13053,80
612,45	12771,20
612,91	12474,80
613,36	12598,00
613,82	11937,00
614,27	11739,00
614,73	11519,80
615,18	11378,00
615,64	11227,60
616,09	11061,40
616,54	10793,40
617,00	10726,40
617,45	10540,60
617,91	10445,00
618,36	10178,80
618,82	9987,60
619,27	9909,00
619,72	9834,40
620,18	9644,80
620,63	9588,40
621,09	9499,60
621,54	9237,20
622,00	9196,60
622,45	9132,80
622,90	8941,80
623,36	8671,20
623,81	8576,00
624,27	8612,20
624,72	8275,40
625,17	8331,00
625,63	8228,20
626,08	8037,00
626,54	7967,40
626,99	7920,80
627,44	7726,00
627,90	7742,60
628,35	7717,40
628,81	7422,20
629,26	7401,80
629,71	7416,40
630,17	7228,20
630,62	7262,80
631,07	7123,60
631,53	7115,60
631,98	6996,20
632,43	6998,20
632,89	6734,20
633,34	6723,20
633,79	6613,80
634,25	6538,60
634,70	6480,80
635,15	6464,60
635,61	6381,40
636,06	6289,80
636,51	6322,40
636,97	6219,80
637,42	6127,80
637,87	6209,00
638,33	6185,40
638,78	6010,20
639,23	5998,80
639,69	5889,00
640,14	5774,20
640,59	5883,40
641,05	5927,80
641,50	5668,20
641,95	5682,00
642,40	5693,60
642,86	5544,20
643,31	5572,40
643,76	5629,60
644,22	5499,20
644,67	5444,80
645,12	5447,60
645,57	5384,60
646,03	5403,20
646,48	5396,20
646,93	5397,00
647,38	5419,60
647,84	5294,20
648,29	5313,40
648,74	5137,20
649,19	5342,60
649,65	5241,60
650,10	5632,80
650,55	5061,60
651,00	5035,80
651,46	5020,60
651,91	5109,40
652,36	4946,80
652,81	5015,40
653,27	4965,00
653,72	4906,40
654,17	4987,20
654,62	4963,60
655,07	4886,60
655,53	4788,20
655,98	4981,80
656,43	4799,60
656,88	4854,60
657,33	4879,40
657,79	4889,40
658,24	4739,40
658,69	4801,60
659,14	4647,00
659,59	5243,80
660,05	4686,60
660,50	4832,20
660,95	4699,20
661,40	4640,60
661,85	4655,80
662,30	4561,80
662,76	4471,00
663,21	4687,80
663,66	4568,80
664,11	4570,00
664,56	4594,60
665,01	4488,20
665,47	4604,00
665,92	4474,40
666,37	4599,40
666,82	4562,60
667,27	4835,60
667,72	4695,40
668,17	4458,40
668,62	4570,00
669,08	4440,60
669,53	4775,00
669,98	4367,40
670,43	4424,20
670,88	4624,60
671,33	4479,00
671,78	4681,40
672,23	4761,60
672,69	4458,00
673,14	4456,80
673,59	4582,80
674,04	4828,00
674,49	4475,00
674,94	4466,40
675,39	4313,40
675,84	4306,40
676,29	4429,40
676,74	4413,60
677,19	4399,20
677,64	4397,00
678,10	4696,40
678,55	4363,20
679,00	4351,80
679,45	4432,00
679,90	4328,00
680,35	4360,60
680,80	4366,40
681,25	4213,80
681,70	4194,00
682,15	4327,20
682,60	4358,40
683,05	4436,00
683,50	4418,60
683,95	4382,60
684,40	4482,40
684,85	4403,80
685,30	4362,00
685,75	4377,20
686,20	4314,60
686,65	4245,20
687,10	4338,20
687,55	4256,00
688,00	4357,20
688,45	4297,20
688,90	4651,60
689,35	4384,00
689,80	4159,00
690,25	4271,40
690,70	4307,60
691,15	4190,40
691,60	4312,40
692,05	4195,40
692,50	4346,80
692,95	4332,40
693,40	4392,80
693,85	4410,40
694,30	4383,40
694,75	4359,40
695,20	4840,60
695,65	4302,00
696,10	4313,20
696,55	4528,20
697,00	4262,00
697,45	4231,40
697,90	4353,80
698,35	4206,20
698,80	4368,60
699,24	4346,00
699,69	4213,80
700,14	4245,40
700,59	4368,40
701,04	4374,40
701,49	4731,00
701,94	4151,80
702,39	4441,40
702,84	4185,80
703,29	4207,80
703,74	4288,20
704,19	4226,20
704,63	4224,60
705,08	4371,80
705,53	4360,60
705,98	4349,80
706,43	4127,00
706,88	4325,60
707,33	4274,00
707,78	4238,60
708,22	4300,80
708,67	4339,20
709,12	4250,80
709,57	4193,00
710,02	4228,20
710,47	4229,00
710,92	4165,40
711,37	4281,00
711,81	4229,40
712,26	4245,60
712,71	4129,40
713,16	4438,80
713,61	4187,60
714,06	4223,60
714,50	4371,00
714,95	4298,60
715,40	4220,00
715,85	4236,00
716,30	4154,40
716,75	4159,00
717,19	4105,00
717,64	4072,20
718,09	4233,00
718,54	4369,80
718,99	4103,00
719,43	4067,40
719,88	4216,60
720,33	4174,00
720,78	4133,40
721,23	4226,00
721,67	4116,20
722,12	4244,40
722,57	4152,60
723,02	4080,20
723,47	4040,80
723,91	4182,60
724,36	4028,80
724,81	4218,00
725,26	4046,40
725,70	4144,40
726,15	4170,60
726,60	4197,40
727,05	4388,60
727,49	4075,00
727,94	4334,80
728,39	4214,20
728,84	4120,60
729,28	4302,60
729,73	4097,80
730,18	4257,40
730,63	4094,60
731,07	4180,00
731,52	4190,60
731,97	4188,00
732,41	4212,60
732,86	4079,60
733,31	4225,40
733,76	4152,40
734,20	4085,80
734,65	4233,80
735,10	4211,60
735,54	4161,60
735,99	4470,40
736,44	4050,80
736,89	4180,80
737,33	4247,00
737,78	4200,80
738,23	4151,80
738,67	4122,20
739,12	4157,60
739,57	4049,80
740,01	4260,40
740,46	4188,80
740,91	4056,60
741,35	4187,20
741,80	4217,60
742,25	4116,40
742,69	4154,00
743,14	4059,00
743,59	4053,60
744,03	4115,00
744,48	4244,00
744,92	4228,60
745,37	4177,60
745,82	4213,40
746,26	4283,20
746,71	3953,00
747,16	4042,00
747,60	4013,20
748,05	4164,00
748,49	4087,60
748,94	4087,20
749,39	4177,80
749,83	4461,00
750,28	4118,20
750,73	4093,00
751,17	3996,40
751,62	4061,60
752,06	4052,40
752,51	4100,60
752,95	4340,40
753,40	4034,00
753,85	4112,00
754,29	4003,80
754,74	4072,80
755,18	4008,60
755,63	4102,80
756,07	4105,20
756,52	4225,00
756,97	4083,00
757,41	4243,40
757,86	4125,40
758,30	4075,00
758,75	4085,20
759,19	4086,00
759,64	3992,40
760,08	4091,20
760,53	4129,00
760,98	4078,00
761,42	4145,40
761,87	4211,80
762,31	4050,80
762,76	3948,20
763,20	4061,60
763,65	4160,60
764,09	4082,00
764,54	3982,60
764,98	4037,00
765,43	4115,60
765,87	3978,20
766,32	3977,80
766,76	3999,20
767,21	4087,40
767,65	4084,00
768,10	4087,20
768,54	4126,00
768,99	4048,00
769,43	4286,40
769,88	3985,00
770,32	4063,60
770,77	3979,80
771,21	3955,80
771,65	4112,40
772,10	4067,40
772,54	4078,20
772,99	3923,00
773,43	4005,80
773,88	4006,20
774,32	3888,60
774,77	4034,20
775,21	3963,60
775,65	4053,60
776,10	4042,00
776,54	3953,00
776,99	4005,20
777,43	3991,20
777,88	4076,80
778,32	4085,20
778,76	3971,80
779,21	4048,80
779,65	4346,60
780,10	4151,60
780,54	4023,20
780,99	4104,60
781,43	4069,20
781,87	3928,60
782,32	4004,60
782,76	3911,60
783,20	3966,40
783,65	4075,60
784,09	4099,60
784,54	3973,40
784,98	3938,60
785,42	3946,20
785,87	3894,20
786,31	4033,40
786,75	4111,00
787,20	4084,60
787,64	3900,00
788,09	3893,00
788,53	3974,40
788,97	3893,80
789,42	3909,60
789,86	3885,80
790,30	3963,80
790,75	3867,80
791,19	3880,40
791,63	4071,20
792,08	3892,80
792,52	3950,20
792,96	3884,80
793,41	4440,20
793,85	4023,40
794,29	3919,40
794,74	3939,00
795,18	3938,00
795,62	3827,60
796,06	3953,40
796,51	3886,80
796,95	3903,00
797,39	3843,60
797,84	3793,40
798,28	3877,00
798,72	3965,60
799,16	3898,20
799,61	3786,60
800,05	4028,60
800,49	3916,20
800,94	3789,60
801,38	3916,00
801,82	3867,60
802,26	3790,20
802,71	3961,20
803,15	4060,20
803,59	3927,00
804,03	3877,40
804,48	3828,80
804,92	3797,60
805,36	4032,00
805,80	4097,00
806,25	4050,80
806,69	3943,80
807,13	4090,40
807,57	3812,00
808,01	3833,00
808,46	3728,80
808,90	3883,00
809,34	3823,60
809,78	3786,20
810,23	3738,00
810,67	3860,40
811,11	3986,40
811,55	4249,60
811,99	3790,80
812,44	3754,00
812,88	3874,20
813,32	4025,40
813,76	3917,60
814,20	3849,80
814,64	3936,00
815,09	3880,00
815,53	3865,00
815,97	3766,60
816,41	3737,80
816,85	3779,60
817,29	3885,80
817,74	3814,20
818,18	3928,00
818,62	3758,20
819,06	3886,20
819,50	3942,40
819,94	3759,60
820,39	3834,20
820,83	3774,20
821,27	3791,60
821,71	3724,60
822,15	3976,20
822,59	3705,60
823,03	3816,80
823,47	3818,80
823,92	3690,80
824,36	3810,80
824,80	3783,40
825,24	3831,80
825,68	3832,00
826,12	3692,00
826,56	3749,20
827,00	3626,00
827,44	3786,00
827,88	3889,80
828,33	3917,20
828,77	3718,80
829,21	3876,20
829,65	3832,20
830,09	3718,20
830,53	3941,00
830,97	3755,60
831,41	4063,80
831,85	3889,60
832,29	3842,80
832,73	3663,00
833,17	3767,80
833,61	3743,60
834,05	3957,80
834,49	3833,60
834,93	3768,80
835,37	3747,00
835,82	3896,20
836,26	3751,00
836,70	3810,00
837,14	3778,80
837,58	3876,80
838,02	3705,60
838,46	3719,40
838,90	3800,00
839,34	3763,40
839,78	3946,80
840,22	4036,20
840,66	3769,20
841,10	3916,20
841,54	3632,80
841,98	3699,00
842,42	3660,20
842,86	3744,80
843,30	3857,40
843,74	3779,60
844,18	3838,60
844,62	3776,80
845,06	3665,20
845,50	3839,00
845,94	3753,40
846,37	3823,20
846,81	3704,00
847,25	3679,80
847,69	3769,00
848,13	3687,00
848,57	3726,00
849,01	3709,40
849,45	3804,20
849,89	3896,80
850,33	3822,80
850,77	3705,60
851,21	3864,60
851,65	3659,20
852,09	3795,40
852,53	3849,80
852,97	3711,60
853,40	3696,60
853,84	3820,20
854,28	3649,20
854,72	3842,20
855,16	3652,20
855,60	3696,20
856,04	3869,00
856,48	3896,60
856,92	3736,60
857,36	3810,00
857,79	3738,60
858,23	3627,00
858,67	3884,80
859,11	3590,00
859,55	3667,80
859,99	3710,20
860,43	3704,20
860,87	3772,80
861,30	3812,00
861,74	3681,00
862,18	3712,20
862,62	3787,60
863,06	3674,20
863,50	3688,00
863,94	3799,20
864,37	3655,60
864,81	3721,00
865,25	3694,00
865,69	3621,20
866,13	3704,00
866,57	3582,20
867,00	3795,00
867,44	3636,60
867,88	3753,80
868,32	3696,00
868,76	3680,40
869,19	3761,60
869,63	3711,40
870,07	3891,00
870,51	4019,80
870,95	3630,60
871,38	3726,00
871,82	3717,40
872,26	3634,20
872,70	3740,00
873,14	3780,40
873,57	3706,20
874,01	3833,60
874,45	3812,60
874,89	3694,80
875,32	3631,20
875,76	3837,60
876,20	3564,40
876,64	3746,00
877,07	3702,40
877,51	3701,20
877,95	3722,40
878,39	3697,60
878,82	3739,20
879,26	3709,60
879,70	3882,80
880,14	3648,80
880,57	3620,20
881,01	3679,80
881,45	3715,40
881,89	3810,20
882,32	3686,40
882,76	3682,80
883,20	3698,00
883,63	3695,00
884,07	3609,60
884,51	3772,20
884,94	3724,60
885,38	3756,60
885,82	3790,60
886,26	3686,60
886,69	3641,60
887,13	3886,40
887,57	3619,80
888,00	3623,20
888,44	3692,60
888,88	3665,80
889,31	4092,40
889,75	3604,80
890,19	3770,40
890,62	3657,80
891,06	3765,60
891,50	3757,40
891,93	3593,60
892,37	3645,40
892,81	3682,00
893,24	3604,60
893,68	3660,00
894,11	3744,80
894,55	3659,80
894,99	3772,60
895,42	3665,20
895,86	3607,80
896,30	3709,60
896,73	3746,60
897,17	3614,60
897,60	3603,60
898,04	3642,40
898,48	3711,40
898,91	3821,00
899,35	3619,00
899,78	3639,40
900,22	3652,40
900,66	3804,00
901,09	3752,60
901,53	3661,40
901,96	3925,20
902,40	3913,60
902,84	3602,00
903,27	3673,00
903,71	3913,40
904,14	3630,40
904,58	3753,80
905,01	3623,00
905,45	3671,20
905,88	3588,20
906,32	3819,40
906,76	3678,40
907,19	3812,40
907,63	3738,80
908,06	3676,60
908,50	3748,40
908,93	3854,20
909,37	3670,20
909,80	3582,20
910,24	3742,00
910,67	3700,40
911,11	3687,20
911,54	3622,40
911,98	3673,00
912,41	3708,20
912,85	3654,80
913,28	3717,60
913,72	3734,20
914,15	3692,40
914,59	3577,40
915,02	3609,40
915,46	3648,40
915,89	3619,40
916,33	3781,00
916,76	3638,20
917,20	3806,80
917,63	3648,20
918,07	3769,00
918,50	3608,80
918,94	3662,20
919,37	3678,00
919,81	3731,80
920,24	3796,40
920,67	3686,60
921,11	3875,60
921,54	3743,20
921,98	3655,80
922,41	3592,00
922,85	3587,80
923,28	3709,00
923,72	3859,40
924,15	3737,20
924,58	3568,40
925,02	3771,00
925,45	3620,80
925,89	3753,20
926,32	3929,80
926,75	3659,00
927,19	3759,00
927,62	3580,60
928,06	3925,40
928,49	3681,20
928,92	3591,20
929,36	3788,40
929,79	3672,40
930,23	3719,40
930,66	3771,80
931,09	3616,40
931,53	3716,40
931,96	3552,20
932,39	3894,40
932,83	3803,60
933,26	4007,80
933,70	3668,00
934,13	3816,40
934,56	3754,00
935,00	3756,60
935,43	3726,00
935,86	3576,80
936,30	3666,40
936,73	3608,00
937,16	3734,60
937,60	3587,20
938,03	3751,80
938,46	3635,80
938,90	3668,20
939,33	3744,60
939,76	3582,20
940,19	3684,20
940,63	3782,00
941,06	3925,20
941,49	3619,80
941,93	3790,00
942,36	3613,60
942,79	3653,60
943,23	3750,80
943,66	3571,80
944,09	3556,80
944,52	3751,00
944,96	3726,80
945,39	3743,80
945,82	3679,40
946,26	3705,80
946,69	3714,80
947,12	3823,40
947,55	3694,40
947,99	3664,40
948,42	3738,00
948,85	3555,00
949,28	3566,00
949,72	3584,60
950,15	3982,80
950,58	3814,60
951,01	3662,80
951,45	3639,60
951,88	3717,80
952,31	3552,80
952,74	3785,00
953,17	3627,20
953,61	3886,60
954,04	3566,00
954,47	3615,80
954,90	3625,40
955,33	3628,60
955,77	3625,80
956,20	3734,40
956,63	3584,00
957,06	3728,60
957,49	4027,60
957,93	3563,20
958,36	3709,20
958,79	3684,60
959,22	3627,40
959,65	3619,40
960,08	3611,00
960,52	3511,80
960,95	3636,60
961,38	3743,60
961,81	3719,40
962,24	3785,40
962,67	3754,00
963,11	3585,00
963,54	3701,80
963,97	3627,00
964,40	3696,40
964,83	3651,40
965,26	3606,40
965,69	3763,80
966,13	3627,20
966,56	3651,20
966,99	3735,80
967,42	3614,00
967,85	3594,00
968,28	3786,80
968,71	4174,00
969,14	3725,00
969,57	3640,20
970,01	3722,00
970,44	3582,60
970,87	3625,20
971,30	3708,80
971,73	3629,20
972,16	3651,20
972,59	3550,40
973,02	3593,20
973,45	3651,80
973,88	3714,40
974,31	3641,80
974,74	3741,00
975,17	3700,80
975,61	3604,00
976,04	3608,40
976,47	3596,00
976,90	3677,40
977,33	3564,20
977,76	3752,80
978,19	3700,00
978,62	3652,60
979,05	3640,40
979,48	3639,60
979,91	3762,00
980,34	3735,00
980,77	3629,00
981,20	3706,40
981,63	3790,20
982,06	3650,00
982,49	3648,00
982,92	3632,40
983,35	3612,60
983,78	3592,80
984,21	3781,80
984,64	3721,20
985,07	3570,80
985,50	3513,00
985,93	3637,40
986,36	3734,60
986,79	3618,20
987,22	3616,80
987,65	3708,20
988,08	3663,20
988,51	3664,80
988,94	3653,60
989,37	3696,00
989,80	3642,40
990,23	3634,20
990,66	3707,80
991,09	3642,00
991,51	3701,80
991,94	3862,80
992,37	3642,00
992,80	3586,40
993,23	3654,20
993,66	3582,40
994,09	3603,80
994,52	3714,40
994,95	3737,40
995,38	3689,80
995,81	3685,60
996,24	3527,80
996,67	3558,60
997,09	3499,60
997,52	3786,80
997,95	3735,80
998,38	3613,60
998,81	3674,40
999,24	3575,60
999,67	3818,80
1000,10	3654,20
1000,53	3680,40
1000,95	3812,40
1001,38	3584,20
1001,81	3694,20
1002,24	3730,40
1002,67	3660,20
1003,10	3676,20
1003,53	3657,20
1003,95	3735,00
1004,38	3574,20
1004,81	3700,00
1005,24	3681,60
1005,67	3824,20
1006,10	3643,20
1006,52	3554,60
1006,95	3706,80
1007,38	3636,40
1007,81	3587,40
1008,24	3519,00
1008,67	3652,20
1009,09	3615,60
1009,52	4085,20
1009,95	3762,00
1010,38	3756,80
1010,81	3689,00
1011,23	3726,60
1011,66	3765,20
1012,09	3642,60
1012,52	3734,80
1012,95	3661,20
1013,37	3691,00
1013,80	3728,80
1014,23	3570,00
1014,66	3802,00
1015,08	3552,60
1015,51	3744,60
1015,94	3590,60
1016,37	3666,40
1016,80	3569,20
1017,22	3706,20
1017,65	3643,20
1018,08	6434,60
1018,51	3611,20
1018,93	3517,40
1019,36	3981,00
1019,79	3798,20
1020,21	3737,60
1020,64	3636,20
1021,07	3663,20
1021,50	3705,60
1021,92	3678,60
1022,35	3714,00
1022,78	3651,80
1023,21	4078,20
1023,63	3777,80
1024,06	3779,40
1024,49	3731,00
1024,91	3684,40
1025,34	3699,00
1025,77	3755,80
1026,19	3586,40
1026,62	3598,40
1027,05	3951,00
1027,47	3725,80
1027,90	3704,20
1028,33	3674,60
1028,75	3686,20
1029,18	3604,60
1029,61	3917,80
1030,03	3662,80
1030,46	3652,60
1030,89	3697,80
1031,31	3802,00
1031,74	3553,20
1032,17	3685,40
1032,59	3736,40
1033,02	3632,20
1033,45	3769,20
1033,87	3589,20
1034,30	3590,40
1034,73	3692,20
1035,15	3774,40
1035,58	3633,80
1036,00	3868,20
1036,43	3604,20
1036,86	3639,40
1037,28	3708,60
1037,71	3553,40
1038,13	3756,80
1038,56	3767,40
1038,99	3723,80
1039,41	3781,40
1039,84	3849,40
1040,26	3656,20
1040,69	3642,20
1041,11	3698,80
1041,54	3638,00
1041,97	3813,60
1042,39	3805,20
1042,82	3724,60
1043,24	3772,40
1043,67	3661,60
1044,09	3762,40
1044,52	3599,00
1044,95	3645,60
1045,37	3624,80
1045,80	3596,60
1046,22	3686,80
1046,65	3715,00
1047,07	3584,80
1047,50	3699,00
1047,92	3750,40
1048,35	3580,40
1048,77	3775,20
1049,20	3726,00
1049,62	3744,40
1050,05	3658,20
1050,47	3652,00
1050,90	3715,40
1051,32	3769,00
1051,75	3811,60
1052,17	3802,60
1052,60	3684,80
1053,02	3728,40
1053,45	3500,60
1053,87	3689,00
1054,30	3512,40
1054,72	3659,80
1055,15	3611,00
1055,57	3707,40
1056,00	3727,40
1056,42	3867,20
1056,85	3797,20
1057,27	3794,40
1057,70	3702,40
1058,12	4141,20
1058,54	3576,20
1058,97	3724,40
1059,39	3742,00
1059,82	3662,00
1060,24	3643,40
1060,67	3615,80
1061,09	3745,80
1061,51	3694,20
1061,94	3637,80
1062,36	3760,20
1062,79	3844,80
1063,21	3719,60
1063,64	3670,80
1064,06	3615,40
1064,48	3759,60
1064,91	3789,60
1065,33	3634,80
1065,76	3577,60
1066,18	3551,00
1066,60	3755,20
1067,03	3702,00
1067,45	3640,80
1067,87	3694,00
1068,30	3623,40
1068,72	3861,40
1069,15	3683,40
1069,57	3648,20
1069,99	3549,60
1070,42	3780,80
1070,84	3792,20
1071,26	3773,80
1071,69	3636,20
1072,11	3741,20
1072,53	3634,40
1072,96	3578,00
1073,38	3556,60
1073,80	3746,40
1074,23	3612,40
1074,65	3564,20
1075,07	3633,80
1075,50	3607,60
1075,92	3683,20
1076,34	3618,00
1076,77	3587,00
1077,19	3652,20
1077,61	3777,00
1078,04	3646,80
1078,46	3722,40
1078,88	3847,20
1079,30	3496,00
1079,73	3679,60
1080,15	3612,80
1080,57	3662,00
1081,00	3717,00
1081,42	3656,00
1081,84	3641,80
1082,26	3699,00
1082,69	3664,80
1083,11	3660,80
1083,53	3672,60
1083,95	3680,00
1084,38	3788,20
1084,80	3688,80
1085,22	3643,00
1085,64	3807,80
1086,07	3594,00
1086,49	3621,20
1086,91	3705,40
1087,33	3548,80
1087,76	3738,00
1088,18	7516,00
1088,60	3672,60
1089,02	3613,40
1089,45	3630,20
1089,87	3645,00
1090,29	3761,20
1090,71	3662,40
1091,13	3560,80
1091,56	3654,20
1091,98	3635,00
1092,40	3597,20
1092,82	3666,60
1093,24	3610,20
1093,66	3659,40
1094,09	3629,20
1094,51	3664,20
1094,93	3634,40
1095,35	3661,80
1095,77	3616,40
1096,19	3651,80
1096,62	3700,40
1097,04	3566,20
1097,46	3675,80
1097,88	3595,20
1098,30	3727,80
1098,72	3719,20
1099,15	3733,40
1099,57	3626,20
1099,99	3643,20
1100,41	3589,60
1100,83	3612,20
1101,25	3609,00
1101,67	3640,80
1102,09	3554,80
1102,52	3596,80
1102,94	3615,80
1103,36	3640,80
1103,78	3677,80
1104,20	3604,00
1104,62	3808,00
1105,04	3475,00
1105,46	3675,20
1105,88	3625,00
1106,30	3598,60
1106,73	3647,40
1107,15	3469,60
1107,57	3532,40
1107,99	3753,20
1108,41	3523,20
1108,83	3688,20
1109,25	3700,20
1109,67	3690,60
1110,09	3511,80
1110,51	3601,80
1110,93	3527,80
1111,35	3582,60
1111,77	3513,40
1112,19	3521,80
1112,61	3501,20
1113,03	3578,80
1113,45	3533,80
1113,87	3515,60
1114,29	3612,60
1114,71	3657,40
1115,13	3534,60
1115,55	3597,40
1115,98	3544,00
1116,40	3646,80
1116,82	3595,00
1117,24	3607,20
1117,66	3514,60
1118,08	2155,20
1118,50	2186,80
1118,91	2182,80
1119,33	2185,60
>>>>>End Processed Spectral Data<<<<<
