SpectraSuite Data File
++++++++++++++++++++++++++++++++++++
Date: Wed Nov 27 17:01:03 EET 2013
User: OO Maya
Dark Spectrum Present: No
Reference Spectrum Present: No
Number of Sampled Component Spectra: 1
Spectrometers: MAYP11278
Integration Time (usec): 500000 (MAYP11278)
Spectra Averaged: 5 (MAYP11278)
Boxcar Smoothing: 0 (MAYP11278)
Correct for Electrical Dark: No (MAYP11278)
Strobe/Lamp Enabled: No (MAYP11278)
Correct for Detector Non-linearity: No (MAYP11278)
Correct for Stray Light: No (MAYP11278)
Number of Pixels in Processed Spectrum: 2068
>>>>>Begin Processed Spectral Data<<<<<
188,05	2293,20
188,53	2214,40
189,01	2182,20
189,49	2182,20
189,96	2728,40
190,44	2775,60
190,92	2764,40
191,40	2782,40
191,88	2821,00
192,36	2774,20
192,83	2757,40
193,31	2735,00
193,79	2775,20
194,27	2764,60
194,75	2796,80
195,23	2768,00
195,70	2809,60
196,18	2773,60
196,66	2765,80
197,14	2881,20
197,62	2772,20
198,09	2738,60
198,57	2767,20
199,05	2761,40
199,53	2792,20
200,01	2816,60
200,48	2760,80
200,96	2770,60
201,44	2813,80
201,92	2800,00
202,39	2801,40
202,87	2754,40
203,35	2797,20
203,83	2757,80
204,31	2825,60
204,78	2833,40
205,26	2763,60
205,74	2762,80
206,22	2849,80
206,69	2771,40
207,17	2805,60
207,65	2900,20
208,13	2786,60
208,60	2798,20
209,08	2768,00
209,56	2818,60
210,04	2807,00
210,51	2783,80
210,99	2790,00
211,47	2804,40
211,94	2783,20
212,42	2765,40
212,90	2861,20
213,38	2817,60
213,85	2771,80
214,33	2868,00
214,81	2798,20
215,29	2855,20
215,76	2820,40
216,24	2817,80
216,72	2826,40
217,19	2810,40
217,67	2773,60
218,15	2792,40
218,62	2846,80
219,10	2744,60
219,58	2767,20
220,05	2777,00
220,53	2792,20
221,01	2970,00
221,49	2779,80
221,96	2839,20
222,44	2771,40
222,92	2832,80
223,39	2778,60
223,87	2830,60
224,35	2797,20
224,82	2787,00
225,30	2752,80
225,78	2796,20
226,25	2768,60
226,73	2791,00
227,21	2866,20
227,68	2801,60
228,16	2826,80
228,63	2825,20
229,11	2826,60
229,59	2798,80
230,06	2813,40
230,54	2790,60
231,02	2828,80
231,49	2844,00
231,97	2794,60
232,45	2813,40
232,92	2765,40
233,40	2813,40
233,87	2814,20
234,35	2951,20
234,83	2815,40
235,30	2765,80
235,78	2791,60
236,25	2755,20
236,73	2842,00
237,21	2898,00
237,68	2776,00
238,16	2814,00
238,63	2807,20
239,11	2807,00
239,59	2785,80
240,06	2763,40
240,54	2835,40
241,01	2858,00
241,49	2804,20
241,96	2805,00
242,44	2850,20
242,92	2867,20
243,39	2766,80
243,87	2777,00
244,34	2838,60
244,82	2866,20
245,29	2801,40
245,77	2865,40
246,24	2858,00
246,72	2780,00
247,20	2806,00
247,67	2819,40
248,15	2821,00
248,62	2830,40
249,10	2750,60
249,57	2812,40
250,05	2835,00
250,52	2835,60
251,00	2860,20
251,47	2813,60
251,95	2904,00
252,42	2865,60
252,90	2791,40
253,37	2865,40
253,85	2827,40
254,32	2800,40
254,80	2834,40
255,27	2830,80
255,75	2838,00
256,22	2802,60
256,70	2821,80
257,17	2840,00
257,65	2853,40
258,12	2942,60
258,60	2831,20
259,07	2811,20
259,55	2823,00
260,02	2861,20
260,50	2895,80
260,97	2814,80
261,45	2804,80
261,92	2869,40
262,40	2784,60
262,87	2827,00
263,35	2824,40
263,82	2780,20
264,30	2858,00
264,77	2874,20
265,25	2796,60
265,72	2835,00
266,19	2832,20
266,67	2869,80
267,14	2826,20
267,62	2816,00
268,09	2845,80
268,57	2848,40
269,04	2770,20
269,51	2803,00
269,99	2811,00
270,46	2844,40
270,94	2862,80
271,41	2815,20
271,89	2832,00
272,36	2789,40
272,83	2785,80
273,31	2757,00
273,78	2839,80
274,26	2980,60
274,73	2860,20
275,20	2873,20
275,68	2805,60
276,15	2820,60
276,63	2860,80
277,10	2862,80
277,57	2794,80
278,05	2829,20
278,52	2797,80
279,00	3022,40
279,47	2823,00
279,94	2813,20
280,42	2996,80
280,89	2863,00
281,36	2979,20
281,84	2806,60
282,31	2886,00
282,78	2812,80
283,26	2830,40
283,73	2847,00
284,21	2806,20
284,68	2802,80
285,15	2878,20
285,63	2832,80
286,10	2858,20
286,57	2841,20
287,05	2789,60
287,52	2856,20
287,99	2900,20
288,47	2824,40
288,94	2848,80
289,41	2761,80
289,89	2905,60
290,36	2802,60
290,83	2844,60
291,30	2817,20
291,78	2857,60
292,25	2922,80
292,72	2804,20
293,20	2874,80
293,67	2821,20
294,14	2845,80
294,62	2855,00
295,09	2808,00
295,56	2832,00
296,03	2845,80
296,51	2908,00
296,98	2904,20
297,45	2862,60
297,93	2846,20
298,40	2846,40
298,87	2808,40
299,34	2881,60
299,82	2818,60
300,29	2842,60
300,76	2808,40
301,23	2863,20
301,71	2855,40
302,18	2864,20
302,65	2787,00
303,12	2844,20
303,60	2865,60
304,07	2788,00
304,54	2803,00
305,01	2779,00
305,49	2830,40
305,96	2854,80
306,43	2827,80
306,90	2847,40
307,38	2800,60
307,85	2798,80
308,32	2822,00
308,79	2797,80
309,27	2876,40
309,74	2856,60
310,21	2843,00
310,68	2841,80
311,15	2842,00
311,63	2808,00
312,10	2856,00
312,57	2814,00
313,04	2913,80
313,51	2800,40
313,99	2812,00
314,46	2822,40
314,93	2799,80
315,40	2796,60
315,87	2862,40
316,34	2845,20
316,82	2839,80
317,29	2853,60
317,76	2830,40
318,23	2945,40
318,70	2826,20
319,17	2806,40
319,65	2767,80
320,12	2846,80
320,59	2902,00
321,06	2842,80
321,53	2816,40
322,00	2764,20
322,48	2779,00
322,95	2889,40
323,42	2812,80
323,89	2907,00
324,36	2770,20
324,83	2833,40
325,30	2818,40
325,78	2804,60
326,25	2804,00
326,72	2793,80
327,19	2838,60
327,66	2830,60
328,13	2835,80
328,60	2819,20
329,07	2803,60
329,54	2804,00
330,02	2800,20
330,49	2787,20
330,96	2857,80
331,43	2833,00
331,90	2911,00
332,37	2791,80
332,84	2894,40
333,31	2841,80
333,78	2847,20
334,25	2879,60
334,72	2821,60
335,20	2844,00
335,67	2976,80
336,14	2784,80
336,61	2823,60
337,08	2797,20
337,55	2828,80
338,02	2808,00
338,49	2815,60
338,96	2891,40
339,43	2859,60
339,90	2791,40
340,37	2783,40
340,84	2784,20
341,31	2851,40
341,78	2872,40
342,25	2802,40
342,72	2820,40
343,19	2849,20
343,67	2833,20
344,14	2792,80
344,61	2822,60
345,08	2793,20
345,55	2810,80
346,02	2850,60
346,49	2804,40
346,96	2790,80
347,43	2878,80
347,90	2798,40
348,37	2865,60
348,84	2827,60
349,31	2771,20
349,78	2810,20
350,25	2852,60
350,72	2811,00
351,19	2791,80
351,66	2826,20
352,13	2893,20
352,60	2824,00
353,07	2815,00
353,54	2830,40
354,01	2855,80
354,48	2832,20
354,94	2860,00
355,41	2830,40
355,88	2903,80
356,35	2783,60
356,82	2888,40
357,29	2793,60
357,76	2917,20
358,23	2847,40
358,70	2793,60
359,17	2782,20
359,64	2808,00
360,11	2797,20
360,58	2856,00
361,05	2884,80
361,52	2811,40
361,99	2807,60
362,46	2832,80
362,93	2811,60
363,39	2819,00
363,86	2914,40
364,33	2840,80
364,80	2798,40
365,27	2860,40
365,74	2811,40
366,21	2781,20
366,68	2921,60
367,15	2813,20
367,62	3507,60
368,09	2757,40
368,55	2782,60
369,02	2855,00
369,49	2786,20
369,96	2860,00
370,43	2825,20
370,90	2808,00
371,37	2811,00
371,84	2852,40
372,31	2791,20
372,77	2765,40
373,24	2822,20
373,71	2822,00
374,18	2787,00
374,65	2782,20
375,12	2837,60
375,59	2766,20
376,05	2894,20
376,52	2806,60
376,99	2771,20
377,46	2777,20
377,93	2827,20
378,40	2833,20
378,86	2827,20
379,33	2843,60
379,80	2819,00
380,27	2848,00
380,74	2891,60
381,21	2831,20
381,67	2895,00
382,14	2894,40
382,61	2777,40
383,08	2832,00
383,55	2818,00
384,02	2872,00
384,48	2832,60
384,95	3048,00
385,42	2825,80
385,89	2815,20
386,36	2828,00
386,82	2896,00
387,29	2792,20
387,76	2767,80
388,23	2868,20
388,69	2853,40
389,16	2884,80
389,63	2805,40
390,10	2867,00
390,57	2845,60
391,03	2865,80
391,50	2854,20
391,97	2869,40
392,44	2865,80
392,90	2852,80
393,37	2833,00
393,84	2959,20
394,31	2862,20
394,77	2918,00
395,24	2851,40
395,71	2898,40
396,18	3117,40
396,64	2842,60
397,11	2929,40
397,58	2952,20
398,05	2908,40
398,51	2940,80
398,98	2923,20
399,45	2937,00
399,92	3040,00
400,38	2966,80
400,85	3028,60
401,32	3049,60
401,78	3107,40
402,25	3120,00
402,72	3151,00
403,18	3160,00
403,65	3289,00
404,12	3269,20
404,59	3372,80
405,05	3442,40
405,52	3477,20
405,99	3462,40
406,45	3617,00
406,92	3686,00
407,39	3850,40
407,85	3873,80
408,32	3983,20
408,79	4121,60
409,25	4172,20
409,72	4372,40
410,19	4459,60
410,65	4698,60
411,12	4793,20
411,59	5055,00
412,05	5200,60
412,52	5398,60
412,99	5783,60
413,45	6009,80
413,92	6368,80
414,39	6757,20
414,85	7149,40
415,32	7457,60
415,78	7927,80
416,25	8251,00
416,72	8642,80
417,18	9161,20
417,65	9573,00
418,12	10094,60
418,58	10653,80
419,05	11294,20
419,51	11984,40
419,98	12750,40
420,45	13637,20
420,91	14475,80
421,38	15507,20
421,84	16463,00
422,31	17563,00
422,78	18585,40
423,24	19515,80
423,71	20560,20
424,17	21602,80
424,64	22634,60
425,11	23715,60
425,57	24875,40
426,04	26265,80
426,50	27570,00
426,97	29152,60
427,43	30710,20
427,90	32650,20
428,37	34314,80
428,83	36305,80
429,30	38190,20
429,76	40045,80
430,23	41750,60
430,69	43481,20
431,16	44818,20
431,62	46018,80
432,09	47226,40
432,55	48236,80
433,02	49165,60
433,48	50087,80
433,95	51193,20
434,42	52156,40
434,88	53169,60
435,35	54057,00
435,81	54971,80
436,28	55707,40
436,74	56091,80
437,21	56621,20
437,67	56613,40
438,14	56442,00
438,60	55756,60
439,07	54850,40
439,53	53902,00
440,00	52240,40
440,46	50699,80
440,93	49022,00
441,39	47160,40
441,86	45535,20
442,32	44006,00
442,79	42405,40
443,25	40847,80
443,72	39566,40
444,18	38190,20
444,64	37152,00
445,11	35988,20
445,57	34791,60
446,04	33579,20
446,50	32385,60
446,97	31309,40
447,43	30066,40
447,90	28850,80
448,36	27659,40
448,83	26568,80
449,29	25445,60
449,75	24355,60
450,22	23346,60
450,68	22476,80
451,15	21640,40
451,61	20981,60
452,08	20252,20
452,54	19523,20
453,00	19053,40
453,47	18400,40
453,93	17987,00
454,40	17370,20
454,86	16909,40
455,32	16315,80
455,79	15818,40
456,25	15226,40
456,72	14648,80
457,18	14155,00
457,64	13506,60
458,11	12935,20
458,57	12306,40
459,04	11835,60
459,50	11346,20
459,96	10897,20
460,43	10454,40
460,89	10052,00
461,36	9755,40
461,82	9439,20
462,28	9024,80
462,75	8797,80
463,21	8606,60
463,67	8328,40
464,14	8187,00
464,60	7969,00
465,06	7708,80
465,53	7538,20
465,99	7391,20
466,45	7127,20
466,92	6984,00
467,38	6782,80
467,84	6555,80
468,31	6398,20
468,77	6237,00
469,23	6029,00
469,70	5851,60
470,16	5761,80
470,62	5577,60
471,09	5449,80
471,55	5344,20
472,01	5205,20
472,48	5104,60
472,94	5015,20
473,40	5007,00
473,87	4874,40
474,33	4731,60
474,79	4695,00
475,25	4575,00
475,72	4555,60
476,18	4445,60
476,64	4413,60
477,11	4309,00
477,57	4242,40
478,03	4247,40
478,49	4136,40
478,96	4091,20
479,42	3973,60
479,88	4015,60
480,35	3921,60
480,81	3847,00
481,27	3779,60
481,73	3741,80
482,20	3718,20
482,66	3628,60
483,12	3627,20
483,58	3565,00
484,05	3574,60
484,51	3611,60
484,97	3540,60
485,43	3478,00
485,89	3410,80
486,36	3435,60
486,82	3358,20
487,28	3434,20
487,74	3338,20
488,21	3331,20
488,67	3317,40
489,13	3327,00
489,59	3294,20
490,05	3324,80
490,52	3222,60
490,98	3239,60
491,44	3191,00
491,90	3184,80
492,36	3147,20
492,83	3222,20
493,29	3175,20
493,75	3153,40
494,21	3106,20
494,67	3095,40
495,14	3083,40
495,60	3076,40
496,06	3087,60
496,52	3067,80
496,98	3073,40
497,44	3138,00
497,91	3110,60
498,37	3037,00
498,83	3058,60
499,29	3011,60
499,75	3149,00
500,21	3022,40
500,67	2996,40
501,14	3012,40
501,60	2996,40
502,06	3018,80
502,52	2990,60
502,98	2980,00
503,44	2971,20
503,90	2996,00
504,37	2951,00
504,83	2987,80
505,29	2971,20
505,75	2921,40
506,21	2951,60
506,67	2994,20
507,13	2948,00
507,59	2954,60
508,05	2946,60
508,51	2921,60
508,98	2907,00
509,44	2880,40
509,90	2911,60
510,36	2927,00
510,82	2892,20
511,28	2967,20
511,74	2976,20
512,20	2884,40
512,66	2853,20
513,12	2886,20
513,58	2929,80
514,04	2838,40
514,51	2944,00
514,97	2976,00
515,43	2835,80
515,89	2912,60
516,35	2933,60
516,81	2914,40
517,27	3003,40
517,73	2907,60
518,19	2884,60
518,65	3058,20
519,11	2870,40
519,57	2868,20
520,03	2831,00
520,49	2843,40
520,95	2893,60
521,41	2903,80
521,87	2904,80
522,33	2876,80
522,79	2828,80
523,25	2951,60
523,71	2908,00
524,17	2846,40
524,63	2930,20
525,09	2891,80
525,55	2901,60
526,01	2923,60
526,47	2883,60
526,93	2879,20
527,39	2858,60
527,85	2850,80
528,31	2886,80
528,77	2893,00
529,23	2839,00
529,69	2829,80
530,15	2883,80
530,61	2881,40
531,07	2797,00
531,53	2891,80
531,99	2862,40
532,45	2860,20
532,91	2860,20
533,37	2875,20
533,83	2837,60
534,29	2816,20
534,75	2830,80
535,21	2838,60
535,67	2851,80
536,12	2837,20
536,58	2874,20
537,04	2819,60
537,50	2873,00
537,96	2824,20
538,42	2843,20
538,88	2914,60
539,34	2867,80
539,80	3098,00
540,26	2788,80
540,72	2916,60
541,18	2840,60
541,63	2802,20
542,09	2857,40
542,55	2856,20
543,01	2830,20
543,47	2969,60
543,93	2798,20
544,39	2925,40
544,85	2866,80
545,31	2838,40
545,76	2831,60
546,22	2878,20
546,68	2857,60
547,14	2855,00
547,60	2875,20
548,06	2843,40
548,52	2831,80
548,98	2823,40
549,43	2809,60
549,89	2934,20
550,35	2820,40
550,81	2798,80
551,27	2844,60
551,73	2833,60
552,19	2919,40
552,64	2842,20
553,10	2808,00
553,56	2851,00
554,02	2830,80
554,48	2796,80
554,93	2845,40
555,39	2855,20
555,85	2916,00
556,31	2843,40
556,77	2888,40
557,23	2783,40
557,68	2855,60
558,14	2926,40
558,60	2820,00
559,06	2819,40
559,52	2808,20
559,97	2816,20
560,43	2800,00
560,89	2838,20
561,35	2822,80
561,81	2827,00
562,26	2820,00
562,72	2813,20
563,18	2851,40
563,64	2878,20
564,09	2794,40
564,55	2849,40
565,01	2808,20
565,47	2823,40
565,92	2836,60
566,38	2869,80
566,84	2829,60
567,30	2805,00
567,75	2819,40
568,21	2874,80
568,67	2804,40
569,13	2820,60
569,58	2878,60
570,04	2822,80
570,50	2837,20
570,96	2855,80
571,41	2868,20
571,87	2838,60
572,33	2846,40
572,78	2847,60
573,24	2817,20
573,70	2810,80
574,16	2842,40
574,61	2891,00
575,07	2872,80
575,53	2780,60
575,98	2838,40
576,44	2749,80
576,90	2886,00
577,36	2811,80
577,81	2808,60
578,27	2777,20
578,73	2896,40
579,18	2846,40
579,64	2795,80
580,10	2842,20
580,55	2845,20
581,01	2824,80
581,47	2829,20
581,92	2838,80
582,38	2825,60
582,84	2785,60
583,29	2821,80
583,75	2839,20
584,21	2812,80
584,66	2866,40
585,12	2800,60
585,57	2934,80
586,03	2814,00
586,49	2815,60
586,94	2815,00
587,40	2812,20
587,86	2867,40
588,31	2790,20
588,77	2848,00
589,22	2828,60
589,68	2800,80
590,14	2844,40
590,59	2858,40
591,05	2818,60
591,51	2771,40
591,96	2895,80
592,42	2800,40
592,87	2843,40
593,33	2822,40
593,78	2865,00
594,24	2815,60
594,70	2819,20
595,15	2880,60
595,61	2803,80
596,06	2795,40
596,52	2897,60
596,98	2863,80
597,43	2869,80
597,89	2815,20
598,34	2773,40
598,80	2829,60
599,25	2885,40
599,71	2805,40
600,16	2845,20
600,62	2878,00
601,08	2833,40
601,53	2850,80
601,99	2780,40
602,44	2953,00
602,90	2813,40
603,35	2821,20
603,81	2775,60
604,26	2765,20
604,72	2841,80
605,17	2794,20
605,63	2838,20
606,08	2841,00
606,54	2768,20
606,99	2834,00
607,45	2828,40
607,90	2819,60
608,36	2865,00
608,81	2823,80
609,27	2944,40
609,72	2853,60
610,18	2810,60
610,63	2803,60
611,09	2831,80
611,54	2782,00
612,00	2901,00
612,45	2838,80
612,91	2841,40
613,36	2972,60
613,82	2755,00
614,27	2777,80
614,73	2775,40
615,18	2775,20
615,64	2817,20
616,09	2829,00
616,54	2774,40
617,00	2796,60
617,45	2814,60
617,91	2849,40
618,36	2788,20
618,82	2805,80
619,27	2813,20
619,72	2845,80
620,18	2822,80
620,63	2854,40
621,09	2877,80
621,54	2834,40
622,00	2851,80
622,45	2883,80
622,90	2860,20
623,36	2793,60
623,81	2792,00
624,27	2866,20
624,72	2785,00
625,17	2819,00
625,63	2818,20
626,08	2787,60
626,54	2801,60
626,99	2827,20
627,44	2785,40
627,90	2852,60
628,35	2861,00
628,81	2765,80
629,26	2827,40
629,71	2817,80
630,17	2801,60
630,62	2841,80
631,07	2815,60
631,53	2856,60
631,98	2833,20
632,43	2869,20
632,89	2786,00
633,34	2805,20
633,79	2779,60
634,25	2799,80
634,70	2778,80
635,15	2816,60
635,61	2789,60
636,06	2766,40
636,51	2824,40
636,97	2814,00
637,42	2786,80
637,87	2846,80
638,33	2869,80
638,78	2795,00
639,23	2822,00
639,69	2780,80
640,14	2757,20
640,59	2829,00
641,05	2863,80
641,50	2771,20
641,95	2794,20
642,40	2801,60
642,86	2762,00
643,31	2797,60
643,76	2839,80
644,22	2791,00
644,67	2772,60
645,12	2803,60
645,57	2779,00
646,03	2806,20
646,48	2826,80
646,93	2836,40
647,38	2851,80
647,84	2810,20
648,29	2826,20
648,74	2775,80
649,19	2864,80
649,65	2830,60
650,10	3013,00
650,55	2786,00
651,00	2787,00
651,46	2790,80
651,91	2833,60
652,36	2775,00
652,81	2816,80
653,27	2799,00
653,72	2778,00
654,17	2826,00
654,62	2821,40
655,07	2796,60
655,53	2757,60
655,98	2854,20
656,43	2782,60
656,88	2820,00
657,33	2836,20
657,79	2835,40
658,24	2797,20
658,69	2818,40
659,14	2775,00
659,59	3024,80
660,05	2798,40
660,50	2863,40
660,95	2809,40
661,40	2779,60
661,85	2816,20
662,30	2776,80
662,76	2758,80
663,21	2818,60
663,66	2789,80
664,11	2782,40
664,56	2808,00
665,01	2778,20
665,47	2823,20
665,92	2770,80
666,37	2818,40
666,82	2819,80
667,27	2935,20
667,72	2871,00
668,17	2780,80
668,62	2828,40
669,08	2779,00
669,53	2921,80
669,98	2751,00
670,43	2779,20
670,88	2875,80
671,33	2811,80
671,78	2900,40
672,23	2921,80
672,69	2812,20
673,14	2812,00
673,59	2851,20
674,04	2978,60
674,49	2822,40
674,94	2839,20
675,39	2754,40
675,84	2770,60
676,29	2825,60
676,74	2809,20
677,19	2816,20
677,64	2800,80
678,10	2928,00
678,55	2797,40
679,00	2784,20
679,45	2831,40
679,90	2792,80
680,35	2828,20
680,80	2811,20
681,25	2743,60
681,70	2750,00
682,15	2787,80
682,60	2819,80
683,05	2840,00
683,50	2841,00
683,95	2820,80
684,40	2864,40
684,85	2838,20
685,30	2809,60
685,75	2827,60
686,20	2808,40
686,65	2782,80
687,10	2818,60
687,55	2787,80
688,00	2824,60
688,45	2812,80
688,90	2934,20
689,35	2857,60
689,80	2744,00
690,25	2810,60
690,70	2801,40
691,15	2756,40
691,60	2804,20
692,05	2756,00
692,50	2807,20
692,95	2805,60
693,40	2844,60
693,85	2842,60
694,30	2806,40
694,75	2827,40
695,20	3021,40
695,65	2810,80
696,10	2818,20
696,55	2894,00
697,00	2812,20
697,45	2787,20
697,90	2835,00
698,35	2795,60
698,80	2849,00
699,24	2843,20
699,69	2795,60
700,14	2809,00
700,59	2852,60
701,04	2858,80
701,49	2999,20
701,94	2769,00
702,39	2876,00
702,84	2782,20
703,29	2792,40
703,74	2840,00
704,19	2810,20
704,63	2802,00
705,08	2862,60
705,53	2860,00
705,98	2849,60
706,43	2767,00
706,88	2849,20
707,33	2822,20
707,78	2807,40
708,22	2833,20
708,67	2853,80
709,12	2827,40
709,57	2805,40
710,02	2813,60
710,47	2820,20
710,92	2789,40
711,37	2844,80
711,81	2819,40
712,26	2810,80
712,71	2784,60
713,16	2912,40
713,61	2816,20
714,06	2815,60
714,50	2884,00
714,95	2856,60
715,40	2813,00
715,85	2831,20
716,30	2784,00
716,75	2805,80
717,19	2772,80
717,64	2768,80
718,09	2839,20
718,54	2887,40
718,99	2775,80
719,43	2773,40
719,88	2815,00
720,33	2812,20
720,78	2786,40
721,23	2828,20
721,67	2783,20
722,12	2848,40
722,57	2813,40
723,02	2772,60
723,47	2754,20
723,91	2821,40
724,36	2743,40
724,81	2843,80
725,26	2752,60
725,70	2807,80
726,15	2799,60
726,60	2818,60
727,05	2900,20
727,49	2786,00
727,94	2871,60
728,39	2846,60
728,84	2809,00
729,28	2865,60
729,73	2785,00
730,18	2840,20
730,63	2772,60
731,07	2812,60
731,52	2836,20
731,97	2822,40
732,41	2828,20
732,86	2791,60
733,31	2835,20
733,76	2834,00
734,20	2789,00
734,65	2856,00
735,10	2843,60
735,54	2818,20
735,99	2948,20
736,44	2776,60
736,89	2827,80
737,33	2848,60
737,78	2830,40
738,23	2820,60
738,67	2801,40
739,12	2820,00
739,57	2764,80
740,01	2860,80
740,46	2837,80
740,91	2790,40
741,35	2838,00
741,80	2828,00
742,25	2805,40
742,69	2808,80
743,14	2769,00
743,59	2778,00
744,03	2796,60
744,48	2857,00
744,92	2843,20
745,37	2829,80
745,82	2842,80
746,26	2871,00
746,71	2737,60
747,16	2784,20
747,60	2756,20
748,05	2835,40
748,49	2804,60
748,94	2794,40
749,39	2835,60
749,83	2941,80
750,28	2823,20
750,73	2782,80
751,17	2759,60
751,62	2797,20
752,06	2789,60
752,51	2790,60
752,95	2901,60
753,40	2777,20
753,85	2797,60
754,29	2758,00
754,74	2782,20
755,18	2768,00
755,63	2799,00
756,07	2812,40
756,52	2856,60
756,97	2781,60
757,41	2852,40
757,86	2807,00
758,30	2791,20
758,75	2808,00
759,19	2799,40
759,64	2766,60
760,08	2781,00
760,53	2808,60
760,98	2798,60
761,42	2826,20
761,87	2856,60
762,31	2789,00
762,76	2733,60
763,20	2798,00
763,65	2829,20
764,09	2790,20
764,54	2764,20
764,98	2789,80
765,43	2818,00
765,87	2761,60
766,32	2750,80
766,76	2780,40
767,21	2809,80
767,65	2807,20
768,10	2809,20
768,54	2831,80
768,99	2788,80
769,43	2888,60
769,88	2763,40
770,32	2794,80
770,77	2770,40
771,21	2758,00
771,65	2812,20
772,10	2812,40
772,54	2807,00
772,99	2743,80
773,43	2786,40
773,88	2793,80
774,32	2722,00
774,77	2790,80
775,21	2760,60
775,65	2796,80
776,10	2798,80
776,54	2760,20
776,99	2785,80
777,43	2785,40
777,88	2815,00
778,32	2820,00
778,76	2782,40
779,21	2814,00
779,65	2922,80
780,10	2852,00
780,54	2798,20
780,99	2835,20
781,43	2815,20
781,87	2761,60
782,32	2799,20
782,76	2749,80
783,20	2788,00
783,65	2824,20
784,09	2834,20
784,54	2796,60
784,98	2771,40
785,42	2787,80
785,87	2768,40
786,31	2832,20
786,75	2843,80
787,20	2837,00
787,64	2759,20
788,09	2772,80
788,53	2806,40
788,97	2763,60
789,42	2775,60
789,86	2769,80
790,30	2802,40
790,75	2753,00
791,19	2759,80
791,63	2830,40
792,08	2784,80
792,52	2792,40
792,96	2774,00
793,41	3008,00
793,85	2836,40
794,29	2807,80
794,74	2809,80
795,18	2797,20
795,62	2763,00
796,06	2803,60
796,51	2792,20
796,95	2798,40
797,39	2765,60
797,84	2753,60
798,28	2787,60
798,72	2839,80
799,16	2793,60
799,61	2760,20
800,05	2862,40
800,49	2810,60
800,94	2772,00
801,38	2807,00
801,82	2802,80
802,26	2763,40
802,71	2840,60
803,15	2890,60
803,59	2825,60
804,03	2808,80
804,48	2795,40
804,92	2775,80
805,36	2880,80
805,80	2905,80
806,25	2881,80
806,69	2831,80
807,13	2884,80
807,57	2789,20
808,01	2792,40
808,46	2763,00
808,90	2816,00
809,34	2785,20
809,78	2775,40
810,23	2760,40
810,67	2796,20
811,11	2860,00
811,55	2968,60
811,99	2781,40
812,44	2771,60
812,88	2830,40
813,32	2875,00
813,76	2836,20
814,20	2798,20
814,64	2834,40
815,09	2830,00
815,53	2804,00
815,97	2773,40
816,41	2759,40
816,85	2767,40
817,29	2812,60
817,74	2795,60
818,18	2835,60
818,62	2789,00
819,06	2817,00
819,50	2847,80
819,94	2783,20
820,39	2819,40
820,83	2775,40
821,27	2798,80
821,71	2756,20
822,15	2871,60
822,59	2761,80
823,03	2801,60
823,47	2797,00
823,92	2754,60
824,36	2798,00
824,80	2797,40
825,24	2805,40
825,68	2812,60
826,12	2773,80
826,56	2773,00
827,00	2730,20
827,44	2793,60
827,88	2825,60
828,33	2866,20
828,77	2771,00
829,21	2841,00
829,65	2803,60
830,09	2764,80
830,53	2866,80
830,97	2787,60
831,41	2903,40
831,85	2844,80
832,29	2829,80
832,73	2755,20
833,17	2790,20
833,61	2781,40
834,05	2863,20
834,49	2827,80
834,93	2786,00
835,37	2785,20
835,82	2833,40
836,26	2789,00
836,70	2809,20
837,14	2797,00
837,58	2844,20
838,02	2781,40
838,46	2775,00
838,90	2799,80
839,34	2788,60
839,78	2880,80
840,22	2911,00
840,66	2798,20
841,10	2860,20
841,54	2735,40
841,98	2768,40
842,42	2748,40
842,86	2779,60
843,30	2827,40
843,74	2813,00
844,18	2818,20
844,62	2798,00
845,06	2771,00
845,50	2819,20
845,94	2781,60
846,37	2839,80
846,81	2780,60
847,25	2765,40
847,69	2801,40
848,13	2773,40
848,57	2784,00
849,01	2782,60
849,45	2810,60
849,89	2859,00
850,33	2821,00
850,77	2777,60
851,21	2825,60
851,65	2748,60
852,09	2809,00
852,53	2847,20
852,97	2772,80
853,40	2784,80
853,84	2820,40
854,28	2749,60
854,72	2827,60
855,16	2760,60
855,60	2773,40
856,04	2846,20
856,48	2864,60
856,92	2779,40
857,36	2816,80
857,79	2804,20
858,23	2753,60
858,67	2857,60
859,11	2724,00
859,55	2765,40
859,99	2775,40
860,43	2775,20
860,87	2811,20
861,30	2824,80
861,74	2772,20
862,18	2785,20
862,62	2821,80
863,06	2765,00
863,50	2780,80
863,94	2819,40
864,37	2760,80
864,81	2791,40
865,25	2792,60
865,69	2745,20
866,13	2780,60
866,57	2741,20
867,00	2812,60
867,44	2763,80
867,88	2794,00
868,32	2791,40
868,76	2774,80
869,19	2807,20
869,63	2784,40
870,07	2865,80
870,51	2916,80
870,95	2746,60
871,38	2786,20
871,82	2801,20
872,26	2765,40
872,70	2804,00
873,14	2814,80
873,57	2788,00
874,01	2843,00
874,45	2825,20
874,89	2784,00
875,32	2752,80
875,76	2834,60
876,20	2729,60
876,64	2807,20
877,07	2781,20
877,51	2795,80
877,95	2801,60
878,39	2777,60
878,82	2819,40
879,26	2796,00
879,70	2875,40
880,14	2760,20
880,57	2747,40
881,01	2772,80
881,45	2795,40
881,89	2826,60
882,32	2781,80
882,76	2782,80
883,20	2780,80
883,63	2785,80
884,07	2750,00
884,51	2818,00
884,94	2795,20
885,38	2815,40
885,82	2824,60
886,26	2783,20
886,69	2755,20
887,13	2880,60
887,57	2751,00
888,00	2764,80
888,44	2791,80
888,88	2777,60
889,31	2964,20
889,75	2742,40
890,19	2826,60
890,62	2757,40
891,06	2810,80
891,50	2810,40
891,93	2746,20
892,37	2763,80
892,81	2795,00
893,24	2739,80
893,68	2771,00
894,11	2804,80
894,55	2773,00
894,99	2820,60
895,42	2788,60
895,86	2759,80
896,30	2804,60
896,73	2809,00
897,17	2776,80
897,60	2766,00
898,04	2768,00
898,48	2801,60
898,91	2843,80
899,35	2765,00
899,78	2755,00
900,22	2768,80
900,66	2824,00
901,09	2812,20
901,53	2782,80
901,96	2891,60
902,40	2878,40
902,84	2745,20
903,27	2778,00
903,71	2871,00
904,14	2762,00
904,58	2811,20
905,01	2771,80
905,45	2788,00
905,88	2757,60
906,32	2840,80
906,76	2789,40
907,19	2828,20
907,63	2815,00
908,06	2795,80
908,50	2823,80
908,93	2860,00
909,37	2785,60
909,80	2742,40
910,24	2805,80
910,67	2801,20
911,11	2787,60
911,54	2762,20
911,98	2772,40
912,41	2801,60
912,85	2792,80
913,28	2804,60
913,72	2805,20
914,15	2788,00
914,59	2743,00
915,02	2761,80
915,46	2767,60
915,89	2765,80
916,33	2825,80
916,76	2776,40
917,20	2845,40
917,63	2762,00
918,07	2829,60
918,50	2769,60
918,94	2783,60
919,37	2785,00
919,81	2817,00
920,24	2819,60
920,67	2791,20
921,11	2861,20
921,54	2808,00
921,98	2762,40
922,41	2758,80
922,85	2747,60
923,28	2798,40
923,72	2847,40
924,15	2813,00
924,58	2741,60
925,02	2822,20
925,45	2756,20
925,89	2829,00
926,32	2903,60
926,75	2772,20
927,19	2816,40
927,62	2742,80
928,06	2896,20
928,49	2791,00
928,92	2741,40
929,36	2833,00
929,79	2784,00
930,23	2803,00
930,66	2817,00
931,09	2775,40
931,53	2809,40
931,96	2732,40
932,39	2872,60
932,83	2847,40
933,26	2927,20
933,70	2776,00
934,13	2849,60
934,56	2833,40
935,00	2825,80
935,43	2803,00
935,86	2750,40
936,30	2779,00
936,73	2773,00
937,16	2802,20
937,60	2752,40
938,03	2822,00
938,46	2766,80
938,90	2792,60
939,33	2833,80
939,76	2754,60
940,19	2796,60
940,63	2844,40
941,06	2881,60
941,49	2756,60
941,93	2834,20
942,36	2770,80
942,79	2782,00
943,23	2810,60
943,66	2753,00
944,09	2734,00
944,52	2822,40
944,96	2813,60
945,39	2809,00
945,82	2789,80
946,26	2799,80
946,69	2794,80
947,12	2834,20
947,55	2806,20
947,99	2786,00
948,42	2832,00
948,85	2730,40
949,28	2756,40
949,72	2748,20
950,15	2910,60
950,58	2845,00
951,01	2783,20
951,45	2761,60
951,88	2806,60
952,31	2741,60
952,74	2822,40
953,17	2783,00
953,61	2873,20
954,04	2739,00
954,47	2762,40
954,90	2778,20
955,33	2775,80
955,77	2773,60
956,20	2804,40
956,63	2759,80
957,06	2813,00
957,49	2934,40
957,93	2749,00
958,36	2804,20
958,79	2798,20
959,22	2767,00
959,65	2768,00
960,08	2763,20
960,52	2723,80
960,95	2780,60
961,38	2824,40
961,81	2801,80
962,24	2826,00
962,67	2819,20
963,11	2755,40
963,54	2802,60
963,97	2776,20
964,40	2797,80
964,83	2780,00
965,26	2763,00
965,69	2821,60
966,13	2770,40
966,56	2786,80
966,99	2816,20
967,42	2764,40
967,85	2769,20
968,28	2847,40
968,71	2988,20
969,14	2828,40
969,57	2780,60
970,01	2807,40
970,44	2745,00
970,87	2769,40
971,30	2808,80
971,73	2767,40
972,16	2775,40
972,59	2731,00
973,02	2760,40
973,45	2776,40
973,88	2806,00
974,31	2794,00
974,74	2834,80
975,17	2799,80
975,61	2761,80
976,04	2760,60
976,47	2764,00
976,90	2797,40
977,33	2749,20
977,76	2811,40
978,19	2786,20
978,62	2779,40
979,05	2787,60
979,48	2778,80
979,91	2832,80
980,34	2814,40
980,77	2784,80
981,20	2809,80
981,63	2833,40
982,06	2780,20
982,49	2773,20
982,92	2772,80
983,35	2778,40
983,78	2775,20
984,21	2847,60
984,64	2802,00
985,07	2752,20
985,50	2712,20
985,93	2776,80
986,36	2820,60
986,79	2783,80
987,22	2759,60
987,65	2813,80
988,08	2779,60
988,51	2801,00
988,94	2777,80
989,37	2801,80
989,80	2787,00
990,23	2778,40
990,66	2810,40
991,09	2783,00
991,51	2797,60
991,94	2876,20
992,37	2777,80
992,80	2754,80
993,23	2791,00
993,66	2763,80
994,09	2772,40
994,52	2824,20
994,95	2820,60
995,38	2801,20
995,81	2806,80
996,24	2738,00
996,67	2756,20
997,09	2719,60
997,52	2834,00
997,95	2826,60
998,38	2768,60
998,81	2798,00
999,24	2753,60
999,67	2860,20
1000,10	2790,00
1000,53	2796,20
1000,95	2851,40
1001,38	2761,60
1001,81	2796,60
1002,24	2831,80
1002,67	2797,80
1003,10	2806,40
1003,53	2784,80
1003,95	2819,60
1004,38	2755,00
1004,81	2802,80
1005,24	2804,60
1005,67	2846,80
1006,10	2771,00
1006,52	2752,40
1006,95	2821,00
1007,38	2781,60
1007,81	2763,00
1008,24	2738,60
1008,67	2777,20
1009,09	2770,20
1009,52	2963,60
1009,95	2841,80
1010,38	2821,00
1010,81	2805,80
1011,23	2816,60
1011,66	2846,60
1012,09	2789,80
1012,52	2813,80
1012,95	2807,60
1013,37	2803,40
1013,80	2816,40
1014,23	2750,40
1014,66	2850,00
1015,08	2742,20
1015,51	2821,20
1015,94	2757,20
1016,37	2807,20
1016,80	2750,20
1017,22	2806,20
1017,65	2776,80
1018,08	3609,00
1018,51	2773,80
1018,93	2739,60
1019,36	2936,00
1019,79	2842,80
1020,21	2826,20
1020,64	2780,80
1021,07	2781,60
1021,50	2808,60
1021,92	2781,80
1022,35	2808,80
1022,78	2785,60
1023,21	2967,00
1023,63	2851,80
1024,06	2847,00
1024,49	2824,40
1024,91	2799,40
1025,34	2808,60
1025,77	2822,80
1026,19	2756,20
1026,62	2761,00
1027,05	2917,00
1027,47	2825,40
1027,90	2804,20
1028,33	2784,40
1028,75	2798,40
1029,18	2767,60
1029,61	2892,80
1030,03	2807,00
1030,46	2801,20
1030,89	2806,80
1031,31	2850,20
1031,74	2751,20
1032,17	2805,40
1032,59	2821,80
1033,02	2795,80
1033,45	2832,60
1033,87	2769,40
1034,30	2762,00
1034,73	2811,20
1035,15	2823,80
1035,58	2775,00
1036,00	2878,80
1036,43	2761,80
1036,86	2773,00
1037,28	2805,40
1037,71	2747,40
1038,13	2825,60
1038,56	2830,60
1038,99	2822,60
1039,41	2847,40
1039,84	2861,20
1040,26	2780,20
1040,69	2789,60
1041,11	2807,60
1041,54	2775,00
1041,97	2847,60
1042,39	2854,40
1042,82	2806,40
1043,24	2849,00
1043,67	2789,60
1044,09	2835,20
1044,52	2762,40
1044,95	2798,00
1045,37	2759,60
1045,80	2762,00
1046,22	2809,60
1046,65	2806,40
1047,07	2764,40
1047,50	2817,60
1047,92	2843,40
1048,35	2757,00
1048,77	2845,40
1049,20	2823,20
1049,62	2833,80
1050,05	2782,20
1050,47	2791,80
1050,90	2813,60
1051,32	2834,80
1051,75	2863,40
1052,17	2844,80
1052,60	2796,60
1053,02	2821,40
1053,45	2725,40
1053,87	2790,00
1054,30	2733,20
1054,72	2787,60
1055,15	2785,00
1055,57	2809,40
1056,00	2815,00
1056,42	2889,80
1056,85	2842,40
1057,27	2838,40
1057,70	2805,40
1058,12	2982,20
1058,54	2769,20
1058,97	2832,80
1059,39	2827,20
1059,82	2802,00
1060,24	2791,80
1060,67	2776,20
1061,09	2837,00
1061,51	2808,60
1061,94	2774,20
1062,36	2830,60
1062,79	2860,20
1063,21	2806,40
1063,64	2797,80
1064,06	2772,80
1064,48	2854,20
1064,91	2831,20
1065,33	2781,00
1065,76	2754,20
1066,18	2761,40
1066,60	2842,40
1067,03	2801,20
1067,45	2777,00
1067,87	2809,00
1068,30	2782,80
1068,72	2883,40
1069,15	2820,80
1069,57	2790,80
1069,99	2752,20
1070,42	2845,80
1070,84	2840,40
1071,26	2848,00
1071,69	2779,40
1072,11	2820,40
1072,53	2784,20
1072,96	2758,20
1073,38	2752,80
1073,80	2837,60
1074,23	2775,40
1074,65	2744,60
1075,07	2783,60
1075,50	2784,60
1075,92	2791,00
1076,34	2775,20
1076,77	2760,00
1077,19	2785,20
1077,61	2839,40
1078,04	2779,60
1078,46	2821,60
1078,88	2870,80
1079,30	2725,60
1079,73	2806,20
1080,15	2786,00
1080,57	2791,20
1081,00	2810,60
1081,42	2791,00
1081,84	2785,20
1082,26	2808,00
1082,69	2788,20
1083,11	2793,80
1083,53	2800,80
1083,95	2792,60
1084,38	2824,00
1084,80	2801,80
1085,22	2771,40
1085,64	2843,20
1086,07	2769,20
1086,49	2775,80
1086,91	2819,40
1087,33	2734,00
1087,76	2830,00
1088,18	4318,00
1088,60	2795,60
1089,02	2767,20
1089,45	2781,60
1089,87	2786,40
1090,29	2836,80
1090,71	2774,80
1091,13	2744,80
1091,56	2800,80
1091,98	2786,00
1092,40	2772,40
1092,82	2784,60
1093,24	2779,60
1093,66	2796,00
1094,09	2784,60
1094,51	2790,40
1094,93	2790,40
1095,35	2795,80
1095,77	2769,40
1096,19	2798,20
1096,62	2815,40
1097,04	2763,00
1097,46	2800,40
1097,88	2760,80
1098,30	2821,60
1098,72	2813,00
1099,15	2822,80
1099,57	2780,20
1099,99	2790,20
1100,41	2766,80
1100,83	2788,40
1101,25	2767,40
1101,67	2789,60
1102,09	2757,80
1102,52	2764,60
1102,94	2786,20
1103,36	2790,20
1103,78	2799,40
1104,20	2771,20
1104,62	2848,60
1105,04	2725,40
1105,46	2802,40
1105,88	2771,60
1106,30	2772,00
1106,73	2775,40
1107,15	2718,40
1107,57	2741,20
1107,99	2817,20
1108,41	2744,60
1108,83	2801,60
1109,25	2807,60
1109,67	2792,60
1110,09	2721,60
1110,51	2768,60
1110,93	2737,40
1111,35	2766,20
1111,77	2741,20
1112,19	2732,40
1112,61	2721,20
1113,03	2766,40
1113,45	2736,00
1113,87	2741,40
1114,29	2785,40
1114,71	2783,80
1115,13	2754,40
1115,55	2763,20
1115,98	2752,60
1116,40	2784,00
1116,82	2766,60
1117,24	2766,40
1117,66	2732,20
1118,08	2169,00
1118,50	2185,20
1118,91	2183,60
1119,33	2182,60
>>>>>End Processed Spectral Data<<<<<
