SpectraSuite Data File
++++++++++++++++++++++++++++++++++++
Date: Wed Nov 27 16:59:31 EET 2013
User: OO Maya
Dark Spectrum Present: No
Reference Spectrum Present: No
Number of Sampled Component Spectra: 1
Spectrometers: MAYP11278
Integration Time (usec): 500000 (MAYP11278)
Spectra Averaged: 5 (MAYP11278)
Boxcar Smoothing: 0 (MAYP11278)
Correct for Electrical Dark: No (MAYP11278)
Strobe/Lamp Enabled: No (MAYP11278)
Correct for Detector Non-linearity: No (MAYP11278)
Correct for Stray Light: No (MAYP11278)
Number of Pixels in Processed Spectrum: 2068
>>>>>Begin Processed Spectral Data<<<<<
188,05	2291,20
188,53	2215,00
189,01	2181,40
189,49	2181,00
189,96	2749,00
190,44	2772,60
190,92	2759,80
191,40	2784,00
191,88	2814,60
192,36	2768,60
192,83	2767,60
193,31	2736,40
193,79	2776,80
194,27	2761,20
194,75	2785,60
195,23	2762,00
195,70	2811,20
196,18	2758,60
196,66	2767,60
197,14	2881,20
197,62	2776,00
198,09	2734,60
198,57	2755,40
199,05	2741,20
199,53	2792,20
200,01	2817,60
200,48	2774,00
200,96	2767,60
201,44	2821,60
201,92	2806,00
202,39	2810,20
202,87	2745,80
203,35	2793,40
203,83	2765,40
204,31	2809,60
204,78	2834,80
205,26	2758,20
205,74	2761,80
206,22	2851,80
206,69	2764,00
207,17	2799,00
207,65	2890,80
208,13	2779,40
208,60	2819,80
209,08	2776,40
209,56	2825,00
210,04	2812,80
210,51	2792,40
210,99	2776,80
211,47	2820,20
211,94	2791,20
212,42	2770,20
212,90	2865,00
213,38	2817,20
213,85	2758,60
214,33	2859,00
214,81	2792,20
215,29	2860,60
215,76	2796,60
216,24	2824,80
216,72	2823,80
217,19	2817,20
217,67	2774,40
218,15	2784,60
218,62	2846,80
219,10	2741,60
219,58	2768,40
220,05	2768,80
220,53	2782,20
221,01	2969,80
221,49	2774,00
221,96	2830,20
222,44	2769,60
222,92	2815,20
223,39	2784,40
223,87	2832,00
224,35	2806,60
224,82	2784,60
225,30	2759,60
225,78	2790,60
226,25	2765,40
226,73	2794,40
227,21	2846,40
227,68	2797,40
228,16	2822,80
228,63	2828,20
229,11	2835,40
229,59	2792,40
230,06	2801,60
230,54	2778,60
231,02	2828,80
231,49	2858,40
231,97	2806,60
232,45	2796,20
232,92	2771,00
233,40	2813,60
233,87	2810,60
234,35	2956,80
234,83	2817,40
235,30	2776,80
235,78	2783,60
236,25	2770,80
236,73	2837,20
237,21	2885,40
237,68	2770,60
238,16	2820,60
238,63	2805,40
239,11	2804,00
239,59	2811,80
240,06	2760,20
240,54	2831,20
241,01	2851,60
241,49	2809,20
241,96	2789,60
242,44	2843,80
242,92	2845,80
243,39	2761,20
243,87	2788,40
244,34	2838,00
244,82	2867,20
245,29	2793,40
245,77	2869,20
246,24	2855,20
246,72	2786,00
247,20	2807,20
247,67	2809,60
248,15	2809,20
248,62	2835,60
249,10	2747,20
249,57	2812,60
250,05	2839,60
250,52	2821,00
251,00	2875,00
251,47	2815,00
251,95	2897,60
252,42	2868,80
252,90	2795,00
253,37	2853,00
253,85	2827,40
254,32	2816,00
254,80	2827,20
255,27	2825,00
255,75	2844,40
256,22	2798,60
256,70	2838,00
257,17	2834,40
257,65	2860,60
258,12	2928,40
258,60	2827,80
259,07	2796,00
259,55	2833,60
260,02	2841,20
260,50	2891,60
260,97	2815,60
261,45	2801,80
261,92	2880,60
262,40	2790,00
262,87	2837,60
263,35	2824,00
263,82	2770,20
264,30	2851,80
264,77	2869,80
265,25	2818,20
265,72	2840,40
266,19	2843,00
266,67	2856,40
267,14	2820,60
267,62	2827,20
268,09	2840,80
268,57	2857,40
269,04	2757,80
269,51	2794,80
269,99	2813,80
270,46	2857,40
270,94	2890,60
271,41	2817,40
271,89	2839,60
272,36	2792,80
272,83	2789,00
273,31	2762,00
273,78	2840,60
274,26	2985,60
274,73	2855,80
275,20	2868,00
275,68	2804,80
276,15	2834,60
276,63	2850,20
277,10	2852,00
277,57	2787,80
278,05	2820,40
278,52	2802,20
279,00	3011,00
279,47	2823,80
279,94	2813,00
280,42	2994,60
280,89	2877,20
281,36	2961,20
281,84	2808,20
282,31	2879,00
282,78	2823,60
283,26	2829,60
283,73	2841,40
284,21	2799,60
284,68	2788,20
285,15	2863,20
285,63	2836,20
286,10	2859,00
286,57	2846,20
287,05	2797,60
287,52	2855,20
287,99	2884,40
288,47	2815,60
288,94	2854,00
289,41	2763,80
289,89	2895,20
290,36	2789,20
290,83	2850,60
291,30	2812,80
291,78	2847,00
292,25	2922,00
292,72	2815,40
293,20	2880,80
293,67	2807,20
294,14	2850,60
294,62	2848,20
295,09	2803,40
295,56	2828,00
296,03	2831,40
296,51	2898,20
296,98	2888,40
297,45	2848,40
297,93	2844,40
298,40	2839,00
298,87	2800,00
299,34	2887,80
299,82	2818,40
300,29	2855,20
300,76	2803,00
301,23	2860,80
301,71	2854,80
302,18	2859,20
302,65	2788,60
303,12	2848,80
303,60	2869,60
304,07	2787,60
304,54	2790,80
305,01	2781,20
305,49	2827,00
305,96	2838,80
306,43	2823,00
306,90	2842,40
307,38	2812,40
307,85	2803,80
308,32	2825,80
308,79	2814,00
309,27	2865,00
309,74	2854,60
310,21	2833,40
310,68	2836,00
311,15	2828,80
311,63	2819,80
312,10	2867,20
312,57	2825,20
313,04	2900,60
313,51	2798,60
313,99	2813,00
314,46	2825,00
314,93	2800,80
315,40	2788,60
315,87	2854,60
316,34	2845,40
316,82	2829,20
317,29	2846,20
317,76	2828,60
318,23	2943,80
318,70	2819,20
319,17	2806,40
319,65	2767,40
320,12	2835,80
320,59	2897,00
321,06	2847,60
321,53	2809,60
322,00	2753,80
322,48	2790,20
322,95	2879,80
323,42	2807,20
323,89	2918,20
324,36	2770,20
324,83	2820,20
325,30	2812,20
325,78	2816,20
326,25	2811,80
326,72	2800,40
327,19	2842,20
327,66	2822,80
328,13	2830,20
328,60	2838,20
329,07	2797,40
329,54	2796,00
330,02	2793,60
330,49	2790,40
330,96	2851,00
331,43	2829,20
331,90	2904,40
332,37	2789,80
332,84	2909,40
333,31	2848,60
333,78	2844,60
334,25	2879,40
334,72	2843,60
335,20	2839,40
335,67	2987,00
336,14	2779,80
336,61	2812,00
337,08	2804,40
337,55	2838,40
338,02	2796,40
338,49	2806,80
338,96	2878,80
339,43	2857,80
339,90	2788,00
340,37	2796,40
340,84	2789,80
341,31	2832,40
341,78	2863,60
342,25	2794,20
342,72	2839,40
343,19	2851,20
343,67	2833,60
344,14	2805,40
344,61	2818,40
345,08	2781,80
345,55	2818,20
346,02	2850,40
346,49	2799,40
346,96	2802,60
347,43	2882,80
347,90	2791,60
348,37	2861,40
348,84	2821,60
349,31	2755,00
349,78	2817,60
350,25	2867,00
350,72	2823,60
351,19	2783,60
351,66	2821,20
352,13	2908,60
352,60	2834,00
353,07	2808,00
353,54	2820,00
354,01	2852,40
354,48	2830,40
354,94	2859,20
355,41	2831,40
355,88	2882,40
356,35	2795,40
356,82	2894,20
357,29	2795,80
357,76	2924,00
358,23	2845,20
358,70	2775,20
359,17	2782,20
359,64	2802,20
360,11	2807,60
360,58	2852,20
361,05	2874,60
361,52	2805,20
361,99	2814,60
362,46	2816,60
362,93	2805,40
363,39	2816,60
363,86	2919,20
364,33	2856,00
364,80	2806,60
365,27	2834,40
365,74	2802,00
366,21	2779,00
366,68	2927,20
367,15	2806,60
367,62	3696,60
368,09	2745,80
368,55	2786,80
369,02	2851,00
369,49	2782,80
369,96	2860,20
370,43	2825,20
370,90	2808,40
371,37	2811,00
371,84	2841,80
372,31	2789,60
372,77	2764,20
373,24	2833,60
373,71	2829,40
374,18	2778,00
374,65	2780,00
375,12	2825,60
375,59	2754,40
376,05	2880,00
376,52	2799,40
376,99	2769,60
377,46	2775,40
377,93	2829,80
378,40	2830,60
378,86	2822,00
379,33	2830,80
379,80	2820,00
380,27	2841,40
380,74	2882,80
381,21	2825,40
381,67	2892,20
382,14	2898,40
382,61	2755,40
383,08	2837,00
383,55	2808,60
384,02	2863,80
384,48	2837,00
384,95	3063,80
385,42	2830,80
385,89	2812,80
386,36	2834,40
386,82	2899,00
387,29	2790,60
387,76	2773,40
388,23	2866,20
388,69	2846,00
389,16	2881,60
389,63	2794,60
390,10	2841,20
390,57	2837,20
391,03	2844,80
391,50	2854,20
391,97	2840,20
392,44	2861,80
392,90	2818,60
393,37	2832,20
393,84	2945,60
394,31	2836,00
394,77	2887,00
395,24	2824,60
395,71	2902,80
396,18	3088,00
396,64	2827,40
397,11	2911,80
397,58	2930,00
398,05	2876,20
398,51	2916,00
398,98	2903,00
399,45	2900,20
399,92	3007,60
400,38	2939,00
400,85	3012,20
401,32	3012,80
401,78	3094,60
402,25	3095,80
402,72	3120,80
403,18	3131,60
403,65	3270,40
404,12	3266,40
404,59	3353,20
405,05	3442,00
405,52	3490,00
405,99	3476,20
406,45	3624,80
406,92	3702,20
407,39	3886,80
407,85	3900,20
408,32	4041,20
408,79	4187,60
409,25	4264,20
409,72	4506,00
410,19	4570,00
410,65	4814,40
411,12	4908,40
411,59	5218,00
412,05	5375,60
412,52	5600,40
412,99	5970,20
413,45	6250,40
413,92	6627,00
414,39	7011,20
414,85	7448,80
415,32	7745,60
415,78	8246,40
416,25	8606,80
416,72	9027,40
417,18	9579,60
417,65	9996,60
418,12	10516,00
418,58	11147,60
419,05	11727,00
419,51	12579,00
419,98	13307,40
420,45	14242,40
420,91	15150,80
421,38	16183,20
421,84	17215,60
422,31	18276,20
422,78	19355,40
423,24	20364,00
423,71	21386,60
424,17	22372,60
424,64	23493,20
425,11	24549,80
425,57	25760,60
426,04	27049,20
426,50	28573,00
426,97	30119,40
427,43	31792,00
427,90	33657,20
428,37	35357,80
428,83	37504,40
429,30	39323,40
429,76	41146,40
430,23	42877,20
430,69	44563,20
431,16	45835,00
431,62	47110,80
432,09	48304,80
432,55	49142,80
433,02	50127,40
433,48	51043,40
433,95	52114,60
434,42	52987,60
434,88	53963,20
435,35	54779,80
435,81	55813,20
436,28	56460,20
436,74	56801,80
437,21	57170,20
437,67	57228,20
438,14	56878,60
438,60	56201,60
439,07	55224,00
439,53	54135,20
440,00	52522,60
440,46	50844,20
440,93	49114,20
441,39	47262,40
441,86	45529,80
442,32	43895,60
442,79	42206,40
443,25	40817,80
443,72	39367,80
444,18	38185,20
444,64	37013,40
445,11	35786,60
445,57	34645,00
446,04	33469,60
446,50	32205,40
446,97	31040,00
447,43	29934,00
447,90	28659,00
448,36	27407,00
448,83	26350,00
449,29	25211,80
449,75	24165,60
450,22	23140,20
450,68	22168,60
451,15	21444,60
451,61	20658,40
452,08	20035,20
452,54	19306,60
453,00	18810,60
453,47	18165,20
453,93	17706,80
454,40	17172,40
454,86	16655,40
455,32	16075,80
455,79	15608,20
456,25	15111,00
456,72	14419,80
457,18	13934,40
457,64	13310,40
458,11	12713,40
458,57	12199,40
459,04	11671,20
459,50	11162,20
459,96	10705,80
460,43	10301,60
460,89	9900,60
461,36	9623,60
461,82	9319,20
462,28	8955,60
462,75	8648,20
463,21	8512,40
463,67	8223,20
464,14	8041,20
464,60	7838,80
465,06	7606,20
465,53	7424,60
465,99	7273,40
466,45	7054,20
466,92	6875,20
467,38	6698,20
467,84	6485,00
468,31	6341,20
468,77	6157,60
469,23	5990,40
469,70	5768,20
470,16	5684,40
470,62	5546,00
471,09	5380,60
471,55	5282,40
472,01	5135,20
472,48	5048,20
472,94	4947,40
473,40	4934,00
473,87	4798,80
474,33	4691,40
474,79	4641,60
475,25	4535,20
475,72	4503,20
476,18	4415,20
476,64	4374,80
477,11	4267,20
477,57	4233,20
478,03	4219,80
478,49	4100,80
478,96	4087,40
479,42	3932,00
479,88	3979,20
480,35	3908,40
480,81	3829,00
481,27	3748,20
481,73	3725,00
482,20	3691,80
482,66	3602,20
483,12	3595,80
483,58	3523,40
484,05	3540,80
484,51	3601,20
484,97	3503,80
485,43	3484,20
485,89	3398,80
486,36	3416,80
486,82	3367,80
487,28	3404,40
487,74	3325,20
488,21	3314,40
488,67	3306,40
489,13	3321,80
489,59	3303,60
490,05	3315,00
490,52	3216,80
490,98	3229,00
491,44	3165,60
491,90	3173,40
492,36	3144,80
492,83	3210,40
493,29	3175,00
493,75	3152,80
494,21	3105,00
494,67	3095,20
495,14	3087,60
495,60	3051,60
496,06	3093,40
496,52	3054,00
496,98	3073,00
497,44	3139,60
497,91	3089,60
498,37	3017,60
498,83	3047,00
499,29	3019,80
499,75	3140,40
500,21	3026,40
500,67	2999,80
501,14	3010,40
501,60	2984,40
502,06	3034,20
502,52	3003,60
502,98	2991,00
503,44	2975,40
503,90	2996,20
504,37	2929,60
504,83	2992,20
505,29	2983,60
505,75	2921,80
506,21	2952,80
506,67	2986,20
507,13	2932,60
507,59	2969,20
508,05	2950,20
508,51	2910,80
508,98	2901,40
509,44	2883,80
509,90	2902,00
510,36	2914,00
510,82	2903,80
511,28	2960,80
511,74	2978,80
512,20	2871,20
512,66	2853,20
513,12	2889,00
513,58	2925,20
514,04	2833,60
514,51	2935,40
514,97	2974,40
515,43	2837,40
515,89	2894,60
516,35	2937,00
516,81	2919,40
517,27	3003,80
517,73	2911,40
518,19	2884,80
518,65	3050,40
519,11	2881,20
519,57	2849,60
520,03	2838,40
520,49	2848,40
520,95	2882,80
521,41	2899,00
521,87	2904,00
522,33	2864,60
522,79	2826,80
523,25	2955,40
523,71	2894,40
524,17	2859,20
524,63	2944,00
525,09	2895,40
525,55	2892,00
526,01	2915,80
526,47	2877,40
526,93	2867,20
527,39	2854,80
527,85	2854,40
528,31	2888,60
528,77	2883,40
529,23	2849,40
529,69	2816,40
530,15	2865,80
530,61	2890,80
531,07	2807,60
531,53	2899,80
531,99	2851,80
532,45	2847,60
532,91	2842,00
533,37	2859,80
533,83	2844,40
534,29	2818,80
534,75	2837,60
535,21	2827,40
535,67	2866,20
536,12	2831,00
536,58	2866,40
537,04	2808,00
537,50	2866,60
537,96	2840,80
538,42	2840,40
538,88	2903,00
539,34	2867,40
539,80	3083,40
540,26	2791,00
540,72	2920,00
541,18	2846,40
541,63	2794,40
542,09	2867,40
542,55	2861,80
543,01	2820,20
543,47	2969,00
543,93	2800,40
544,39	2936,80
544,85	2867,60
545,31	2830,80
545,76	2824,80
546,22	2900,20
546,68	2851,60
547,14	2860,20
547,60	2865,60
548,06	2855,80
548,52	2831,00
548,98	2832,20
549,43	2811,40
549,89	2939,20
550,35	2829,80
550,81	2795,20
551,27	2856,60
551,73	2847,40
552,19	2910,00
552,64	2845,00
553,10	2804,20
553,56	2858,60
554,02	2828,20
554,48	2788,60
554,93	2837,40
555,39	2845,60
555,85	2910,80
556,31	2836,80
556,77	2888,80
557,23	2777,40
557,68	2846,00
558,14	2930,00
558,60	2821,40
559,06	2814,40
559,52	2805,00
559,97	2801,80
560,43	2808,40
560,89	2818,80
561,35	2821,40
561,81	2820,40
562,26	2819,20
562,72	2799,00
563,18	2838,40
563,64	2884,00
564,09	2788,60
564,55	2846,40
565,01	2819,40
565,47	2819,40
565,92	2835,80
566,38	2880,00
566,84	2797,40
567,30	2812,20
567,75	2836,40
568,21	2867,60
568,67	2819,00
569,13	2821,00
569,58	2864,40
570,04	2826,40
570,50	2833,60
570,96	2863,40
571,41	2851,60
571,87	2817,80
572,33	2840,60
572,78	2841,20
573,24	2795,80
573,70	2810,40
574,16	2836,80
574,61	2889,20
575,07	2871,00
575,53	2784,40
575,98	2839,60
576,44	2761,00
576,90	2868,20
577,36	2824,20
577,81	2817,80
578,27	2777,40
578,73	2894,20
579,18	2847,00
579,64	2795,80
580,10	2845,80
580,55	2848,40
581,01	2825,00
581,47	2826,20
581,92	2834,00
582,38	2828,20
582,84	2774,60
583,29	2834,00
583,75	2848,40
584,21	2806,60
584,66	2846,00
585,12	2808,00
585,57	2940,60
586,03	2805,40
586,49	2813,80
586,94	2822,20
587,40	2818,00
587,86	2857,00
588,31	2792,40
588,77	2847,60
589,22	2815,20
589,68	2792,00
590,14	2840,00
590,59	2859,80
591,05	2813,80
591,51	2774,60
591,96	2886,00
592,42	2808,00
592,87	2846,20
593,33	2833,00
593,78	2871,60
594,24	2829,00
594,70	2815,60
595,15	2881,60
595,61	2807,80
596,06	2781,40
596,52	2897,80
596,98	2851,20
597,43	2872,00
597,89	2838,40
598,34	2774,80
598,80	2817,80
599,25	2869,00
599,71	2807,20
600,16	2851,40
600,62	2869,40
601,08	2833,40
601,53	2844,00
601,99	2770,20
602,44	2977,40
602,90	2802,40
603,35	2811,80
603,81	2776,80
604,26	2756,60
604,72	2853,60
605,17	2810,20
605,63	2847,40
606,08	2822,00
606,54	2764,80
606,99	2830,60
607,45	2815,20
607,90	2825,60
608,36	2835,40
608,81	2814,00
609,27	2935,40
609,72	2871,00
610,18	2825,20
610,63	2802,60
611,09	2833,80
611,54	2788,00
612,00	2908,00
612,45	2841,40
612,91	2830,20
613,36	2965,80
613,82	2768,00
614,27	2785,00
614,73	2771,20
615,18	2785,00
615,64	2810,60
616,09	2820,40
616,54	2797,40
617,00	2809,00
617,45	2808,80
617,91	2850,80
618,36	2801,60
618,82	2797,80
619,27	2807,00
619,72	2844,40
620,18	2805,00
620,63	2859,20
621,09	2873,80
621,54	2816,80
622,00	2860,60
622,45	2887,40
622,90	2858,40
623,36	2791,80
623,81	2783,80
624,27	2869,00
624,72	2781,40
625,17	2808,20
625,63	2834,60
626,08	2803,40
626,54	2810,40
626,99	2828,40
627,44	2775,40
627,90	2851,20
628,35	2843,60
628,81	2758,80
629,26	2811,60
629,71	2829,00
630,17	2800,40
630,62	2842,60
631,07	2816,20
631,53	2853,20
631,98	2842,80
632,43	2874,60
632,89	2790,60
633,34	2799,60
633,79	2784,60
634,25	2799,60
634,70	2771,60
635,15	2797,40
635,61	2794,00
636,06	2782,20
636,51	2823,00
636,97	2809,20
637,42	2789,40
637,87	2850,40
638,33	2862,00
638,78	2800,20
639,23	2819,40
639,69	2784,20
640,14	2766,60
640,59	2834,20
641,05	2857,60
641,50	2775,00
641,95	2795,80
642,40	2809,20
642,86	2768,80
643,31	2789,60
643,76	2839,80
644,22	2788,60
644,67	2779,80
645,12	2799,40
645,57	2785,60
646,03	2812,20
646,48	2837,60
646,93	2821,80
647,38	2853,40
647,84	2818,20
648,29	2828,60
648,74	2778,00
649,19	2859,20
649,65	2840,80
650,10	3016,00
650,55	2775,80
651,00	2780,60
651,46	2786,00
651,91	2829,00
652,36	2767,40
652,81	2811,00
653,27	2799,40
653,72	2775,40
654,17	2822,20
654,62	2825,00
655,07	2812,00
655,53	2764,20
655,98	2849,80
656,43	2792,40
656,88	2815,00
657,33	2841,00
657,79	2830,20
658,24	2782,60
658,69	2808,40
659,14	2780,40
659,59	3024,40
660,05	2795,20
660,50	2875,20
660,95	2813,80
661,40	2777,80
661,85	2806,40
662,30	2766,20
662,76	2746,80
663,21	2823,20
663,66	2791,60
664,11	2790,40
664,56	2786,00
665,01	2776,20
665,47	2817,80
665,92	2770,00
666,37	2829,00
666,82	2826,40
667,27	2937,00
667,72	2875,80
668,17	2789,00
668,62	2830,80
669,08	2773,40
669,53	2921,60
669,98	2754,20
670,43	2774,80
670,88	2867,80
671,33	2811,80
671,78	2894,80
672,23	2924,20
672,69	2810,20
673,14	2804,40
673,59	2862,00
674,04	2954,60
674,49	2808,80
674,94	2824,40
675,39	2771,20
675,84	2775,60
676,29	2813,20
676,74	2804,60
677,19	2801,60
677,64	2797,60
678,10	2946,40
678,55	2806,40
679,00	2800,20
679,45	2823,00
679,90	2784,60
680,35	2811,20
680,80	2806,20
681,25	2738,40
681,70	2738,80
682,15	2800,40
682,60	2813,20
683,05	2849,80
683,50	2841,40
683,95	2830,60
684,40	2869,80
684,85	2842,00
685,30	2816,80
685,75	2821,60
686,20	2800,20
686,65	2780,60
687,10	2811,80
687,55	2789,80
688,00	2818,80
688,45	2801,60
688,90	2948,60
689,35	2836,20
689,80	2753,40
690,25	2806,80
690,70	2807,00
691,15	2763,20
691,60	2820,40
692,05	2754,80
692,50	2814,80
692,95	2800,60
693,40	2841,80
693,85	2834,60
694,30	2816,60
694,75	2832,80
695,20	3031,60
695,65	2825,80
696,10	2828,80
696,55	2908,00
697,00	2816,40
697,45	2799,00
697,90	2836,80
698,35	2790,40
698,80	2845,00
699,24	2845,80
699,69	2796,00
700,14	2807,00
700,59	2851,00
701,04	2852,00
701,49	2993,80
701,94	2764,80
702,39	2887,80
702,84	2802,60
703,29	2787,60
703,74	2825,80
704,19	2815,60
704,63	2794,80
705,08	2858,20
705,53	2865,80
705,98	2872,20
706,43	2763,20
706,88	2846,40
707,33	2812,40
707,78	2820,00
708,22	2836,00
708,67	2861,60
709,12	2815,80
709,57	2786,20
710,02	2816,60
710,47	2813,80
710,92	2793,20
711,37	2843,40
711,81	2827,80
712,26	2812,00
712,71	2787,40
713,16	2915,00
713,61	2809,20
714,06	2815,60
714,50	2874,20
714,95	2864,40
715,40	2807,20
715,85	2827,00
716,30	2787,20
716,75	2799,80
717,19	2770,40
717,64	2756,80
718,09	2832,80
718,54	2899,60
718,99	2763,80
719,43	2771,00
719,88	2828,40
720,33	2816,40
720,78	2786,60
721,23	2838,20
721,67	2789,60
722,12	2846,00
722,57	2809,60
723,02	2758,20
723,47	2755,40
723,91	2819,40
724,36	2756,60
724,81	2836,00
725,26	2763,00
725,70	2798,00
726,15	2808,20
726,60	2810,00
727,05	2891,20
727,49	2778,40
727,94	2875,40
728,39	2829,20
728,84	2794,20
729,28	2871,00
729,73	2780,20
730,18	2842,20
730,63	2768,20
731,07	2816,80
731,52	2825,80
731,97	2816,40
732,41	2823,00
732,86	2777,40
733,31	2849,60
733,76	2819,00
734,20	2766,20
734,65	2840,20
735,10	2836,60
735,54	2815,80
735,99	2950,60
736,44	2775,60
736,89	2818,60
737,33	2854,20
737,78	2833,00
738,23	2810,80
738,67	2788,40
739,12	2814,20
739,57	2756,80
740,01	2860,80
740,46	2835,00
740,91	2776,40
741,35	2825,40
741,80	2842,80
742,25	2798,20
742,69	2802,20
743,14	2770,60
743,59	2782,40
744,03	2809,20
744,48	2852,40
744,92	2843,20
745,37	2832,40
745,82	2847,00
746,26	2876,20
746,71	2744,60
747,16	2775,20
747,60	2757,80
748,05	2826,20
748,49	2799,80
748,94	2792,60
749,39	2830,00
749,83	2937,40
750,28	2811,20
750,73	2806,20
751,17	2740,40
751,62	2785,20
752,06	2786,20
752,51	2796,80
752,95	2887,80
753,40	2780,20
753,85	2791,00
754,29	2742,80
754,74	2788,80
755,18	2760,60
755,63	2795,00
756,07	2804,60
756,52	2867,80
756,97	2794,80
757,41	2862,20
757,86	2805,40
758,30	2783,20
758,75	2787,20
759,19	2801,20
759,64	2764,40
760,08	2806,20
760,53	2819,80
760,98	2787,00
761,42	2833,80
761,87	2856,60
762,31	2786,20
762,76	2750,60
763,20	2789,20
763,65	2826,80
764,09	2801,20
764,54	2755,00
764,98	2778,20
765,43	2817,00
765,87	2769,20
766,32	2764,40
766,76	2778,80
767,21	2801,00
767,65	2809,00
768,10	2809,80
768,54	2823,20
768,99	2789,20
769,43	2885,20
769,88	2758,00
770,32	2803,60
770,77	2773,00
771,21	2745,00
771,65	2812,00
772,10	2797,40
772,54	2813,00
772,99	2736,00
773,43	2781,60
773,88	2783,60
774,32	2734,40
774,77	2804,80
775,21	2763,60
775,65	2806,60
776,10	2797,40
776,54	2758,40
776,99	2777,60
777,43	2784,40
777,88	2819,20
778,32	2832,00
778,76	2775,80
779,21	2819,00
779,65	2939,20
780,10	2865,00
780,54	2796,40
780,99	2832,00
781,43	2814,80
781,87	2759,00
782,32	2807,00
782,76	2749,00
783,20	2789,40
783,65	2824,20
784,09	2831,00
784,54	2795,60
784,98	2782,40
785,42	2792,40
785,87	2768,20
786,31	2827,80
786,75	2850,60
787,20	2850,20
787,64	2759,60
788,09	2771,20
788,53	2810,00
788,97	2759,60
789,42	2780,40
789,86	2769,60
790,30	2790,40
790,75	2755,60
791,19	2767,20
791,63	2848,60
792,08	2772,60
792,52	2781,40
792,96	2770,80
793,41	2984,20
793,85	2837,20
794,29	2790,80
794,74	2806,00
795,18	2793,20
795,62	2762,40
796,06	2809,40
796,51	2798,60
796,95	2798,60
797,39	2782,80
797,84	2752,60
798,28	2791,40
798,72	2840,80
799,16	2802,00
799,61	2757,20
800,05	2870,60
800,49	2804,60
800,94	2764,00
801,38	2808,60
801,82	2787,20
802,26	2769,80
802,71	2831,00
803,15	2871,60
803,59	2827,00
804,03	2804,20
804,48	2792,20
804,92	2777,80
805,36	2885,00
805,80	2898,20
806,25	2888,80
806,69	2832,20
807,13	2892,40
807,57	2784,80
808,01	2794,20
808,46	2763,80
808,90	2822,40
809,34	2794,20
809,78	2769,00
810,23	2746,60
810,67	2810,00
811,11	2852,20
811,55	2961,20
811,99	2780,60
812,44	2764,60
812,88	2809,80
813,32	2880,40
813,76	2841,00
814,20	2793,80
814,64	2838,60
815,09	2821,40
815,53	2800,40
815,97	2777,60
816,41	2760,00
816,85	2766,80
817,29	2829,40
817,74	2802,80
818,18	2849,80
818,62	2775,60
819,06	2832,00
819,50	2840,80
819,94	2784,60
820,39	2817,80
820,83	2779,40
821,27	2792,80
821,71	2775,20
822,15	2869,80
822,59	2745,80
823,03	2800,60
823,47	2799,20
823,92	2760,40
824,36	2800,80
824,80	2789,40
825,24	2806,40
825,68	2818,20
826,12	2745,80
826,56	2780,60
827,00	2724,80
827,44	2794,20
827,88	2827,80
828,33	2846,60
828,77	2785,40
829,21	2839,80
829,65	2821,20
830,09	2767,60
830,53	2861,00
830,97	2796,20
831,41	2918,80
831,85	2844,20
832,29	2815,40
832,73	2757,00
833,17	2783,20
833,61	2782,20
834,05	2865,80
834,49	2816,40
834,93	2792,80
835,37	2768,80
835,82	2830,60
836,26	2778,40
836,70	2809,60
837,14	2803,00
837,58	2835,80
838,02	2768,80
838,46	2775,40
838,90	2813,80
839,34	2779,00
839,78	2871,40
840,22	2902,60
840,66	2786,60
841,10	2866,60
841,54	2737,40
841,98	2753,40
842,42	2747,80
842,86	2778,20
843,30	2832,80
843,74	2791,00
844,18	2815,20
844,62	2791,00
845,06	2765,60
845,50	2827,40
845,94	2780,40
846,37	2826,20
846,81	2763,80
847,25	2767,80
847,69	2794,60
848,13	2760,00
848,57	2780,40
849,01	2778,20
849,45	2814,40
849,89	2848,60
850,33	2829,80
850,77	2781,40
851,21	2834,60
851,65	2760,00
852,09	2806,20
852,53	2829,60
852,97	2773,00
853,40	2770,60
853,84	2819,00
854,28	2748,00
854,72	2827,60
855,16	2746,00
855,60	2777,40
856,04	2848,60
856,48	2855,20
856,92	2791,60
857,36	2803,00
857,79	2813,20
858,23	2746,00
858,67	2849,40
859,11	2717,80
859,55	2766,40
859,99	2784,60
860,43	2775,80
860,87	2790,60
861,30	2826,80
861,74	2758,00
862,18	2789,80
862,62	2806,80
863,06	2773,00
863,50	2770,40
863,94	2829,60
864,37	2764,80
864,81	2787,20
865,25	2784,80
865,69	2739,40
866,13	2785,60
866,57	2722,20
867,00	2812,20
867,44	2754,80
867,88	2791,40
868,32	2777,60
868,76	2772,00
869,19	2810,80
869,63	2789,40
870,07	2843,20
870,51	2901,20
870,95	2746,40
871,38	2785,00
871,82	2798,60
872,26	2764,80
872,70	2813,20
873,14	2814,20
873,57	2789,80
874,01	2839,40
874,45	2826,20
874,89	2774,00
875,32	2747,40
875,76	2839,00
876,20	2723,60
876,64	2811,60
877,07	2790,00
877,51	2797,80
877,95	2787,80
878,39	2786,20
878,82	2799,00
879,26	2773,60
879,70	2872,20
880,14	2764,80
880,57	2755,20
881,01	2777,40
881,45	2792,00
881,89	2822,00
882,32	2782,40
882,76	2783,80
883,20	2780,20
883,63	2780,00
884,07	2756,00
884,51	2809,60
884,94	2800,00
885,38	2812,60
885,82	2833,20
886,26	2773,60
886,69	2758,00
887,13	2878,60
887,57	2753,20
888,00	2765,00
888,44	2782,60
888,88	2770,20
889,31	2954,00
889,75	2745,40
890,19	2820,20
890,62	2768,00
891,06	2822,00
891,50	2810,40
891,93	2740,40
892,37	2771,00
892,81	2771,20
893,24	2757,40
893,68	2776,60
894,11	2806,00
894,55	2777,20
894,99	2820,60
895,42	2772,40
895,86	2744,60
896,30	2805,20
896,73	2802,80
897,17	2755,80
897,60	2759,40
898,04	2769,60
898,48	2799,00
898,91	2836,80
899,35	2765,00
899,78	2756,80
900,22	2766,00
900,66	2838,20
901,09	2823,20
901,53	2777,80
901,96	2875,40
902,40	2879,20
902,84	2755,00
903,27	2786,40
903,71	2869,80
904,14	2749,20
904,58	2817,00
905,01	2770,40
905,45	2777,60
905,88	2757,80
906,32	2838,40
906,76	2790,20
907,19	2841,00
907,63	2802,60
908,06	2784,20
908,50	2816,40
908,93	2849,00
909,37	2782,40
909,80	2742,60
910,24	2810,60
910,67	2793,20
911,11	2800,60
911,54	2761,60
911,98	2772,60
912,41	2801,60
912,85	2772,60
913,28	2808,00
913,72	2815,60
914,15	2783,40
914,59	2740,80
915,02	2751,60
915,46	2779,40
915,89	2761,40
916,33	2824,60
916,76	2761,40
917,20	2828,00
917,63	2773,80
918,07	2833,20
918,50	2764,40
918,94	2782,40
919,37	2779,40
919,81	2818,60
920,24	2834,60
920,67	2790,60
921,11	2862,60
921,54	2810,60
921,98	2777,80
922,41	2753,80
922,85	2740,00
923,28	2789,40
923,72	2857,00
924,15	2819,60
924,58	2743,00
925,02	2824,60
925,45	2753,20
925,89	2817,40
926,32	2884,60
926,75	2775,40
927,19	2822,20
927,62	2741,60
928,06	2886,40
928,49	2784,40
928,92	2754,60
929,36	2835,40
929,79	2779,20
930,23	2797,20
930,66	2823,60
931,09	2767,60
931,53	2798,00
931,96	2734,20
932,39	2860,60
932,83	2837,60
933,26	2919,20
933,70	2783,60
934,13	2835,20
934,56	2823,00
935,00	2829,40
935,43	2802,60
935,86	2757,40
936,30	2796,40
936,73	2771,20
937,16	2814,00
937,60	2754,00
938,03	2810,00
938,46	2758,00
938,90	2788,60
939,33	2822,00
939,76	2747,80
940,19	2795,60
940,63	2839,00
941,06	2889,20
941,49	2767,40
941,93	2830,60
942,36	2754,40
942,79	2785,40
943,23	2818,40
943,66	2760,60
944,09	2738,80
944,52	2824,60
944,96	2808,40
945,39	2808,80
945,82	2785,20
946,26	2799,80
946,69	2804,80
947,12	2858,40
947,55	2796,60
947,99	2788,00
948,42	2815,60
948,85	2739,60
949,28	2745,40
949,72	2752,40
950,15	2924,20
950,58	2845,60
951,01	2775,00
951,45	2772,00
951,88	2810,60
952,31	2748,20
952,74	2820,00
953,17	2774,20
953,61	2874,00
954,04	2733,20
954,47	2763,00
954,90	2762,60
955,33	2783,20
955,77	2780,40
956,20	2811,80
956,63	2752,20
957,06	2816,80
957,49	2934,00
957,93	2747,80
958,36	2810,40
958,79	2801,60
959,22	2773,60
959,65	2761,00
960,08	2769,20
960,52	2711,20
960,95	2774,60
961,38	2833,00
961,81	2795,60
962,24	2826,60
962,67	2816,60
963,11	2758,80
963,54	2788,80
963,97	2772,60
964,40	2789,80
964,83	2784,00
965,26	2767,00
965,69	2829,20
966,13	2774,60
966,56	2782,60
966,99	2818,00
967,42	2763,60
967,85	2761,60
968,28	2837,40
968,71	3003,60
969,14	2821,40
969,57	2777,40
970,01	2810,60
970,44	2738,00
970,87	2771,60
971,30	2808,40
971,73	2764,40
972,16	2791,80
972,59	2736,20
973,02	2759,00
973,45	2774,80
973,88	2818,60
974,31	2779,80
974,74	2822,00
975,17	2803,40
975,61	2758,00
976,04	2752,00
976,47	2773,80
976,90	2798,00
977,33	2760,40
977,76	2828,20
978,19	2791,60
978,62	2777,80
979,05	2777,60
979,48	2771,20
979,91	2824,00
980,34	2814,40
980,77	2767,20
981,20	2802,60
981,63	2830,00
982,06	2786,40
982,49	2782,00
982,92	2783,20
983,35	2764,60
983,78	2766,60
984,21	2833,20
984,64	2823,60
985,07	2747,80
985,50	2729,20
985,93	2767,40
986,36	2815,40
986,79	2778,80
987,22	2769,40
987,65	2812,20
988,08	2781,40
988,51	2791,60
988,94	2781,60
989,37	2791,60
989,80	2781,40
990,23	2784,40
990,66	2792,00
991,09	2775,60
991,51	2795,60
991,94	2873,40
992,37	2773,80
992,80	2755,60
993,23	2775,60
993,66	2762,20
994,09	2769,00
994,52	2814,20
994,95	2820,00
995,38	2787,40
995,81	2807,00
996,24	2744,00
996,67	2757,00
997,09	2728,40
997,52	2830,40
997,95	2823,80
998,38	2776,80
998,81	2799,60
999,24	2747,80
999,67	2873,40
1000,10	2782,40
1000,53	2790,00
1000,95	2841,60
1001,38	2759,20
1001,81	2806,00
1002,24	2822,80
1002,67	2798,40
1003,10	2798,20
1003,53	2793,40
1003,95	2815,20
1004,38	2760,60
1004,81	2789,80
1005,24	2798,20
1005,67	2845,60
1006,10	2759,40
1006,52	2751,80
1006,95	2799,00
1007,38	2781,00
1007,81	2755,40
1008,24	2732,80
1008,67	2785,40
1009,09	2766,60
1009,52	2961,20
1009,95	2841,40
1010,38	2828,60
1010,81	2815,80
1011,23	2812,00
1011,66	2836,00
1012,09	2776,60
1012,52	2831,60
1012,95	2804,20
1013,37	2817,80
1013,80	2815,80
1014,23	2755,60
1014,66	2850,20
1015,08	2744,00
1015,51	2825,20
1015,94	2753,20
1016,37	2793,40
1016,80	2755,00
1017,22	2810,00
1017,65	2767,60
1018,08	3602,80
1018,51	2775,60
1018,93	2736,20
1019,36	2927,60
1019,79	2844,20
1020,21	2813,80
1020,64	2780,80
1021,07	2799,80
1021,50	2798,80
1021,92	2798,20
1022,35	2806,00
1022,78	2783,00
1023,21	2967,00
1023,63	2845,40
1024,06	2822,80
1024,49	2815,20
1024,91	2799,00
1025,34	2802,80
1025,77	2830,60
1026,19	2769,60
1026,62	2748,60
1027,05	2902,20
1027,47	2816,00
1027,90	2804,60
1028,33	2793,20
1028,75	2799,40
1029,18	2774,00
1029,61	2912,60
1030,03	2792,60
1030,46	2794,40
1030,89	2814,40
1031,31	2855,00
1031,74	2750,40
1032,17	2811,20
1032,59	2835,60
1033,02	2787,20
1033,45	2841,60
1033,87	2756,20
1034,30	2768,60
1034,73	2797,60
1035,15	2838,00
1035,58	2771,60
1036,00	2879,40
1036,43	2778,60
1036,86	2761,80
1037,28	2802,20
1037,71	2740,60
1038,13	2834,40
1038,56	2834,80
1038,99	2827,60
1039,41	2857,20
1039,84	2866,20
1040,26	2782,00
1040,69	2788,20
1041,11	2820,20
1041,54	2780,60
1041,97	2854,20
1042,39	2859,00
1042,82	2815,40
1043,24	2844,20
1043,67	2796,80
1044,09	2841,80
1044,52	2757,60
1044,95	2778,20
1045,37	2785,60
1045,80	2757,80
1046,22	2814,40
1046,65	2822,60
1047,07	2756,80
1047,50	2810,00
1047,92	2830,60
1048,35	2752,60
1048,77	2833,60
1049,20	2826,00
1049,62	2831,20
1050,05	2777,00
1050,47	2795,80
1050,90	2819,60
1051,32	2834,80
1051,75	2840,20
1052,17	2840,20
1052,60	2790,20
1053,02	2824,60
1053,45	2724,80
1053,87	2803,20
1054,30	2727,80
1054,72	2792,80
1055,15	2759,60
1055,57	2811,20
1056,00	2809,80
1056,42	2885,60
1056,85	2846,00
1057,27	2839,80
1057,70	2802,80
1058,12	2989,40
1058,54	2770,40
1058,97	2816,80
1059,39	2837,60
1059,82	2790,20
1060,24	2798,00
1060,67	2774,40
1061,09	2833,80
1061,51	2804,20
1061,94	2782,60
1062,36	2823,80
1062,79	2860,00
1063,21	2808,60
1063,64	2792,00
1064,06	2766,20
1064,48	2838,00
1064,91	2840,00
1065,33	2778,00
1065,76	2755,40
1066,18	2753,80
1066,60	2832,40
1067,03	2791,00
1067,45	2794,00
1067,87	2811,40
1068,30	2773,40
1068,72	2880,20
1069,15	2804,40
1069,57	2781,80
1069,99	2754,40
1070,42	2832,00
1070,84	2834,80
1071,26	2839,80
1071,69	2787,80
1072,11	2825,40
1072,53	2777,00
1072,96	2756,60
1073,38	2745,80
1073,80	2831,00
1074,23	2787,00
1074,65	2739,00
1075,07	2779,80
1075,50	2775,20
1075,92	2814,80
1076,34	2771,20
1076,77	2770,00
1077,19	2795,80
1077,61	2829,60
1078,04	2776,40
1078,46	2827,00
1078,88	2860,20
1079,30	2725,80
1079,73	2805,20
1080,15	2781,40
1080,57	2796,80
1081,00	2817,40
1081,42	2791,80
1081,84	2770,80
1082,26	2812,80
1082,69	2787,20
1083,11	2787,20
1083,53	2779,00
1083,95	2787,80
1084,38	2837,20
1084,80	2797,60
1085,22	2777,00
1085,64	2838,80
1086,07	2759,80
1086,49	2783,00
1086,91	2811,20
1087,33	2750,20
1087,76	2825,80
1088,18	4331,60
1088,60	2793,00
1089,02	2768,20
1089,45	2778,80
1089,87	2782,60
1090,29	2848,80
1090,71	2789,40
1091,13	2749,40
1091,56	2783,60
1091,98	2783,40
1092,40	2770,40
1092,82	2786,00
1093,24	2778,80
1093,66	2798,20
1094,09	2772,80
1094,51	2795,40
1094,93	2784,20
1095,35	2791,80
1095,77	2774,40
1096,19	2798,80
1096,62	2807,20
1097,04	2751,60
1097,46	2788,40
1097,88	2771,60
1098,30	2824,40
1098,72	2818,20
1099,15	2835,60
1099,57	2771,40
1099,99	2790,80
1100,41	2763,80
1100,83	2777,20
1101,25	2767,40
1101,67	2779,80
1102,09	2755,80
1102,52	2771,60
1102,94	2778,80
1103,36	2791,40
1103,78	2797,40
1104,20	2771,60
1104,62	2860,60
1105,04	2719,20
1105,46	2798,60
1105,88	2778,80
1106,30	2766,80
1106,73	2790,60
1107,15	2719,60
1107,57	2742,40
1107,99	2834,20
1108,41	2727,20
1108,83	2805,40
1109,25	2790,80
1109,67	2796,60
1110,09	2733,00
1110,51	2763,40
1110,93	2734,60
1111,35	2762,20
1111,77	2726,60
1112,19	2741,60
1112,61	2713,00
1113,03	2760,60
1113,45	2732,60
1113,87	2739,80
1114,29	2764,80
1114,71	2787,80
1115,13	2745,80
1115,55	2766,40
1115,98	2743,00
1116,40	2786,20
1116,82	2768,80
1117,24	2759,60
1117,66	2737,40
1118,08	2171,40
1118,50	2183,00
1118,91	2184,00
1119,33	2183,20
>>>>>End Processed Spectral Data<<<<<
