SpectraSuite Data File
++++++++++++++++++++++++++++++++++++
Date: Wed Nov 27 16:08:25 EET 2013
User: OO Maya
Dark Spectrum Present: No
Reference Spectrum Present: No
Number of Sampled Component Spectra: 1
Spectrometers: MAYP11278
Integration Time (usec): 1300000 (MAYP11278)
Spectra Averaged: 10 (MAYP11278)
Boxcar Smoothing: 0 (MAYP11278)
Correct for Electrical Dark: No (MAYP11278)
Strobe/Lamp Enabled: No (MAYP11278)
Correct for Detector Non-linearity: No (MAYP11278)
Correct for Stray Light: No (MAYP11278)
Number of Pixels in Processed Spectrum: 2068
>>>>>Begin Processed Spectral Data<<<<<
188,05	2285,80
188,53	2207,30
189,01	2176,30
189,49	2178,10
189,96	3278,70
190,44	3342,00
190,92	3308,90
191,40	3350,80
191,88	3412,00
192,36	3319,40
192,83	3305,20
193,31	3235,60
193,79	3324,80
194,27	3308,20
194,75	3347,30
195,23	3305,90
195,70	3418,30
196,18	3299,00
196,66	3329,20
197,14	3573,90
197,62	3334,30
198,09	3263,70
198,57	3301,90
199,05	3271,10
199,53	3362,20
200,01	3412,80
200,48	3306,50
200,96	3322,20
201,44	3414,40
201,92	3407,10
202,39	3401,10
202,87	3263,20
203,35	3379,80
203,83	3282,90
204,31	3425,10
204,78	3458,60
205,26	3308,20
205,74	3308,90
206,22	3478,30
206,69	3335,00
207,17	3390,60
207,65	3588,90
208,13	3364,50
208,60	3402,50
209,08	3338,00
209,56	3435,20
210,04	3409,80
210,51	3349,60
210,99	3345,90
211,47	3407,90
211,94	3351,60
212,42	3306,50
212,90	3527,60
213,38	3417,60
213,85	3335,80
214,33	3533,20
214,81	3382,70
215,29	3491,90
215,76	3385,80
216,24	3436,70
216,72	3439,20
217,19	3415,80
217,67	3320,70
218,15	3367,00
218,62	3491,40
219,10	3264,80
219,58	3319,90
220,05	3326,30
220,53	3346,90
221,01	3742,20
221,49	3325,30
221,96	3449,70
222,44	3325,50
222,92	3464,20
223,39	3348,10
223,87	3456,20
224,35	3362,90
224,82	3336,20
225,30	3298,70
225,78	3371,60
226,25	3323,30
226,73	3380,60
227,21	3481,60
227,68	3353,70
228,16	3409,70
228,63	3433,60
229,11	3430,40
229,59	3362,40
230,06	3383,80
230,54	3350,40
231,02	3455,90
231,49	3481,40
231,97	3381,30
232,45	3400,60
232,92	3308,50
233,40	3391,40
233,87	3411,30
234,35	3720,70
234,83	3404,50
235,30	3336,40
235,78	3334,10
236,25	3291,50
236,73	3461,10
237,21	3574,80
237,68	3345,80
238,16	3411,80
238,63	3396,80
239,11	3394,80
239,59	3369,20
240,06	3280,20
240,54	3437,90
241,01	3479,50
241,49	3411,00
241,96	3355,60
242,44	3453,10
242,92	3488,60
243,39	3280,90
243,87	3331,70
244,34	3456,20
244,82	3516,00
245,29	3359,30
245,77	3505,70
246,24	3513,70
246,72	3335,00
247,20	3393,10
247,67	3403,90
248,15	3398,60
248,62	3424,80
249,10	3246,00
249,57	3389,60
250,05	3464,90
250,52	3420,20
251,00	3512,40
251,47	3398,80
251,95	3566,70
252,42	3520,00
252,90	3359,40
253,37	3496,30
253,85	3415,30
254,32	3382,80
254,80	3417,30
255,27	3423,50
255,75	3454,00
256,22	3347,30
256,70	3428,20
257,17	3442,90
257,65	3483,80
258,12	3670,90
258,60	3400,10
259,07	3357,20
259,55	3411,30
260,02	3466,40
260,50	3553,40
260,97	3389,40
261,45	3355,30
261,92	3505,20
262,40	3331,70
262,87	3425,70
263,35	3394,00
263,82	3297,60
264,30	3462,00
264,77	3481,30
265,25	3369,10
265,72	3421,30
266,19	3417,90
266,67	3471,30
267,14	3371,90
267,62	3387,00
268,09	3432,60
268,57	3438,30
269,04	3263,50
269,51	3339,20
269,99	3352,20
270,46	3453,70
270,94	3500,10
271,41	3384,30
271,89	3414,80
272,36	3301,50
272,83	3313,50
273,31	3243,40
273,78	3407,20
274,26	3730,20
274,73	3468,60
275,20	3457,20
275,68	3355,40
276,15	3378,90
276,63	3439,30
277,10	3460,70
277,57	3309,60
278,05	3385,10
278,52	3312,30
279,00	3817,00
279,47	3368,40
279,94	3358,10
280,42	3764,90
280,89	3480,10
281,36	3696,50
281,84	3331,50
282,31	3508,20
282,78	3370,40
283,26	3389,10
283,73	3433,10
284,21	3338,20
284,68	3310,70
285,15	3465,90
285,63	3381,90
286,10	3428,10
286,57	3429,40
287,05	3303,80
287,52	3438,30
287,99	3533,00
288,47	3379,60
288,94	3437,20
289,41	3247,60
289,89	3538,40
290,36	3322,80
290,83	3424,20
291,30	3353,10
291,78	3453,40
292,25	3596,20
292,72	3341,70
293,20	3499,70
293,67	3366,20
294,14	3449,10
294,62	3429,50
295,09	3343,10
295,56	3422,10
296,03	3425,10
296,51	3557,30
296,98	3545,80
297,45	3458,20
297,93	3427,60
298,40	3435,20
298,87	3360,40
299,34	3539,50
299,82	3375,00
300,29	3438,00
300,76	3360,20
301,23	3484,10
301,71	3489,50
302,18	3489,60
302,65	3317,40
303,12	3462,60
303,60	3500,70
304,07	3329,60
304,54	3348,00
305,01	3325,70
305,49	3422,10
305,96	3440,60
306,43	3417,00
306,90	3450,00
307,38	3365,80
307,85	3371,90
308,32	3419,10
308,79	3379,70
309,27	3472,20
309,74	3495,10
310,21	3441,30
310,68	3425,00
311,15	3432,10
311,63	3352,90
312,10	3493,10
312,57	3401,50
313,04	3601,40
313,51	3350,40
313,99	3386,10
314,46	3411,50
314,93	3358,70
315,40	3350,00
315,87	3491,70
316,34	3464,10
316,82	3420,60
317,29	3468,60
317,76	3414,30
318,23	3672,00
318,70	3408,90
319,17	3382,60
319,65	3300,30
320,12	3448,80
320,59	3568,50
321,06	3469,50
321,53	3390,60
322,00	3273,50
322,48	3330,20
322,95	3580,20
323,42	3386,60
323,89	3608,50
324,36	3306,10
324,83	3421,70
325,30	3394,50
325,78	3399,50
326,25	3375,80
326,72	3366,60
327,19	3470,70
327,66	3455,50
328,13	3451,20
328,60	3422,00
329,07	3391,50
329,54	3366,20
330,02	3379,30
330,49	3356,00
330,96	3476,40
331,43	3451,30
331,90	3596,60
332,37	3334,90
332,84	3606,90
333,31	3477,50
333,78	3474,40
334,25	3529,20
334,72	3433,70
335,20	3462,60
335,67	3754,00
336,14	3319,40
336,61	3398,40
337,08	3376,50
337,55	3443,00
338,02	3384,80
338,49	3367,80
338,96	3552,10
339,43	3483,10
339,90	3334,60
340,37	3354,80
340,84	3333,70
341,31	3447,00
341,78	3497,00
342,25	3363,80
342,72	3435,80
343,19	3484,30
343,67	3434,50
344,14	3376,30
344,61	3403,40
345,08	3333,60
345,55	3399,70
346,02	3468,80
346,49	3357,80
346,96	3364,50
347,43	3550,80
347,90	3359,40
348,37	3506,10
348,84	3430,60
349,31	3287,80
349,78	3406,70
350,25	3479,50
350,72	3405,00
351,19	3342,80
351,66	3433,00
352,13	3576,10
352,60	3431,70
353,07	3395,90
353,54	3417,70
354,01	3461,10
354,48	3443,40
354,94	3480,70
355,41	3436,80
355,88	3547,90
356,35	3358,30
356,82	3553,40
357,29	3345,80
357,76	3633,00
358,23	3470,20
358,70	3320,60
359,17	3342,90
359,64	3381,90
360,11	3384,70
360,58	3489,30
361,05	3546,50
361,52	3385,10
361,99	3388,90
362,46	3410,50
362,93	3390,20
363,39	3416,60
363,86	3617,70
364,33	3467,70
364,80	3376,70
365,27	3471,20
365,74	3369,50
366,21	3320,40
366,68	3648,40
367,15	3410,20
367,62	5743,80
368,09	3238,60
368,55	3339,00
369,02	3479,50
369,49	3309,00
369,96	3479,10
370,43	3434,80
370,90	3358,70
371,37	3390,90
371,84	3449,10
372,31	3341,80
372,77	3298,40
373,24	3392,20
373,71	3423,40
374,18	3308,10
374,65	3331,80
375,12	3426,70
375,59	3282,80
376,05	3559,20
376,52	3378,80
376,99	3325,90
377,46	3299,10
377,93	3437,20
378,40	3433,60
378,86	3402,40
379,33	3402,50
379,80	3388,90
380,27	3458,70
380,74	3543,00
381,21	3420,10
381,67	3542,80
382,14	3535,50
382,61	3294,00
383,08	3438,40
383,55	3369,10
384,02	3475,30
384,48	3427,70
384,95	3907,60
385,42	3407,30
385,89	3372,70
386,36	3394,10
386,82	3565,50
387,29	3326,80
387,76	3297,60
388,23	3486,80
388,69	3440,00
389,16	3515,10
389,63	3337,20
390,10	3441,10
390,57	3423,80
391,03	3459,50
391,50	3440,50
391,97	3415,40
392,44	3437,00
392,90	3379,60
393,37	3377,60
393,84	3621,60
394,31	3375,80
394,77	3496,50
395,24	3344,90
395,71	3469,90
396,18	3878,80
396,64	3298,90
397,11	3448,60
397,58	3498,00
398,05	3341,50
398,51	3397,90
398,98	3355,00
399,45	3326,70
399,92	3508,70
400,38	3324,50
400,85	3398,10
401,32	3358,90
401,78	3439,90
402,25	3411,30
402,72	3417,20
403,18	3336,20
403,65	3544,10
404,12	3392,90
404,59	3531,40
405,05	3569,50
405,52	3504,70
405,99	3354,30
406,45	3471,20
406,92	3448,10
407,39	3612,80
407,85	3402,70
408,32	3406,90
408,79	3461,60
409,25	3327,40
409,72	3502,80
410,19	3324,50
410,65	3507,40
411,12	3341,90
411,59	3519,60
412,05	3368,80
412,52	3269,30
412,99	3446,70
413,45	3370,20
413,92	3418,40
414,39	3444,30
414,85	3569,40
415,32	3373,00
415,78	3549,50
416,25	3421,90
416,72	3413,80
417,18	3580,50
417,65	3446,30
418,12	3393,40
418,58	3418,90
419,05	3416,10
419,51	3489,60
419,98	3363,70
420,45	3464,60
420,91	3319,20
421,38	3406,60
421,84	3364,20
422,31	3433,80
422,78	3354,90
423,24	3395,60
423,71	3433,60
424,17	3469,70
424,64	3405,10
425,11	3476,80
425,57	3387,70
426,04	3527,70
426,50	3367,70
426,97	3500,60
427,43	3464,30
427,90	3489,30
428,37	3312,60
428,83	3498,30
429,30	3439,40
429,76	3406,70
430,23	3431,50
430,69	3715,00
431,16	3304,30
431,62	3391,70
432,09	3546,70
432,55	3498,20
433,02	3396,80
433,48	3365,30
433,95	3414,40
434,42	3375,20
434,88	3464,10
435,35	3308,00
435,81	3472,50
436,28	3427,70
436,74	3296,10
437,21	3493,80
437,67	3427,50
438,14	3427,10
438,60	3346,20
439,07	3376,20
439,53	3822,30
440,00	3433,70
440,46	3485,60
440,93	3521,40
441,39	3343,90
441,86	3387,30
442,32	3641,60
442,79	3326,40
443,25	3420,20
443,72	3434,00
444,18	3294,50
444,64	3589,00
445,11	3444,00
445,57	3407,30
446,04	3415,00
446,50	3434,20
446,97	3384,00
447,43	3426,50
447,90	3363,10
448,36	3346,80
448,83	3466,90
449,29	3460,30
449,75	3385,00
450,22	3337,20
450,68	3336,30
451,15	3359,60
451,61	3428,70
452,08	3468,30
452,54	3326,20
453,00	3503,00
453,47	3399,00
453,93	3385,80
454,40	3414,40
454,86	3451,00
455,32	3351,40
455,79	3410,60
456,25	3486,40
456,72	3372,90
457,18	3525,00
457,64	3374,40
458,11	3399,50
458,57	3312,20
459,04	3411,40
459,50	3405,70
459,96	3406,30
460,43	3370,70
460,89	3321,10
461,36	3546,90
461,82	3494,10
462,28	3347,90
462,75	3295,60
463,21	3507,00
463,67	3383,40
464,14	3419,10
464,60	3429,00
465,06	3323,40
465,53	3359,90
465,99	3504,50
466,45	3405,30
466,92	3445,90
467,38	3455,90
467,84	3376,60
468,31	3427,10
468,77	3441,20
469,23	3398,80
469,70	3330,30
470,16	3428,70
470,62	3420,30
471,09	3365,70
471,55	3392,60
472,01	3325,90
472,48	3360,80
472,94	3382,90
473,40	3531,60
473,87	3403,50
474,33	3349,50
474,79	3387,20
475,25	3309,00
475,72	3441,60
476,18	3401,70
476,64	3440,60
477,11	3390,10
477,57	3420,30
478,03	3543,50
478,49	3418,80
478,96	3514,40
479,42	3343,10
479,88	3577,40
480,35	3451,10
480,81	3441,10
481,27	3362,40
481,73	3400,50
482,20	3422,30
482,66	3324,40
483,12	3393,10
483,58	3296,90
484,05	3378,40
484,51	3548,40
484,97	3427,60
485,43	3391,20
485,89	3279,70
486,36	3386,50
486,82	3273,10
487,28	3439,40
487,74	3308,20
488,21	3303,20
488,67	3371,10
489,13	3413,70
489,59	3405,80
490,05	3485,80
490,52	3318,20
490,98	3411,20
491,44	3299,60
491,90	3350,50
492,36	3283,50
492,83	3484,20
493,29	3436,20
493,75	3397,50
494,21	3334,30
494,67	3352,40
495,14	3339,10
495,60	3312,00
496,06	3399,00
496,52	3360,50
496,98	3394,40
497,44	3586,10
497,91	3501,80
498,37	3338,90
498,83	3414,70
499,29	3370,70
499,75	3626,40
500,21	3398,70
500,67	3348,30
501,14	3402,60
501,60	3360,90
502,06	3464,80
502,52	3385,70
502,98	3405,50
503,44	3377,50
503,90	3443,50
504,37	3344,40
504,83	3438,00
505,29	3436,10
505,75	3329,90
506,21	3392,20
506,67	3477,70
507,13	3378,70
507,59	3461,60
508,05	3433,90
508,51	3331,60
508,98	3329,10
509,44	3275,40
509,90	3352,70
510,36	3399,80
510,82	3335,80
511,28	3517,60
511,74	3519,10
512,20	3329,00
512,66	3273,00
513,12	3341,30
513,58	3447,90
514,04	3232,60
514,51	3479,30
514,97	3550,70
515,43	3268,90
515,89	3416,10
516,35	3492,70
516,81	3470,40
517,27	3644,60
517,73	3449,10
518,19	3385,00
518,65	3782,80
519,11	3402,10
519,57	3335,70
520,03	3300,10
520,49	3348,20
520,95	3406,70
521,41	3437,30
521,87	3467,40
522,33	3392,60
522,79	3293,90
523,25	3568,70
523,71	3486,10
524,17	3369,80
524,63	3535,10
525,09	3445,30
525,55	3462,90
526,01	3520,80
526,47	3445,00
526,93	3413,30
527,39	3380,10
527,85	3371,00
528,31	3469,00
528,77	3447,30
529,23	3370,70
529,69	3317,70
530,15	3438,90
530,61	3445,30
531,07	3279,00
531,53	3490,90
531,99	3403,30
532,45	3388,30
532,91	3392,70
533,37	3443,10
533,83	3376,20
534,29	3308,10
534,75	3380,70
535,21	3350,00
535,67	3422,80
536,12	3348,10
536,58	3441,00
537,04	3308,20
537,50	3443,50
537,96	3385,40
538,42	3387,40
538,88	3569,30
539,34	3444,50
539,80	3942,00
540,26	3282,60
540,72	3565,60
541,18	3413,60
541,63	3294,90
542,09	3441,50
542,55	3431,00
543,01	3364,60
543,47	3674,70
543,93	3301,10
544,39	3601,80
544,85	3469,30
545,31	3369,60
545,76	3377,00
546,22	3506,80
546,68	3423,00
547,14	3436,60
547,60	3479,20
548,06	3425,90
548,52	3383,50
548,98	3357,50
549,43	3335,50
549,89	3618,30
550,35	3364,00
550,81	3311,50
551,27	3441,20
551,73	3404,90
552,19	3582,80
552,64	3414,30
553,10	3334,80
553,56	3447,80
554,02	3369,90
554,48	3310,90
554,93	3420,20
555,39	3417,90
555,85	3585,10
556,31	3415,80
556,77	3524,80
557,23	3279,30
557,68	3424,00
558,14	3602,30
558,60	3381,90
559,06	3363,50
559,52	3327,60
559,97	3334,20
560,43	3327,30
560,89	3397,80
561,35	3391,70
561,81	3391,10
562,26	3369,80
562,72	3338,00
563,18	3391,90
563,64	3501,60
564,09	3333,20
564,55	3430,40
565,01	3353,50
565,47	3384,50
565,92	3408,80
566,38	3501,30
566,84	3366,70
567,30	3319,30
567,75	3407,40
568,21	3483,00
568,67	3344,80
569,13	3379,90
569,58	3467,90
570,04	3391,90
570,50	3399,80
570,96	3473,50
571,41	3465,30
571,87	3388,70
572,33	3421,30
572,78	3445,80
573,24	3322,10
573,70	3353,60
574,16	3414,50
574,61	3509,20
575,07	3472,20
575,53	3292,80
575,98	3416,60
576,44	3245,60
576,90	3497,00
577,36	3363,70
577,81	3369,20
578,27	3302,50
578,73	3513,80
579,18	3419,40
579,64	3346,50
580,10	3423,20
580,55	3417,00
581,01	3386,50
581,47	3394,40
581,92	3421,30
582,38	3397,70
582,84	3309,80
583,29	3389,20
583,75	3413,40
584,21	3383,30
584,66	3461,20
585,12	3342,00
585,57	3655,90
586,03	3365,90
586,49	3389,60
586,94	3389,60
587,40	3389,10
587,86	3475,40
588,31	3313,40
588,77	3438,60
589,22	3383,80
589,68	3345,50
590,14	3440,80
590,59	3491,30
591,05	3371,10
591,51	3287,00
591,96	3532,40
592,42	3354,60
592,87	3430,80
593,33	3391,90
593,78	3494,20
594,24	3407,60
594,70	3389,90
595,15	3525,30
595,61	3354,50
596,06	3311,10
596,52	3541,80
596,98	3475,80
597,43	3520,20
597,89	3406,00
598,34	3294,30
598,80	3403,70
599,25	3544,20
599,71	3337,00
600,16	3454,40
600,62	3502,60
601,08	3450,70
601,53	3462,20
601,99	3296,20
602,44	3685,20
602,90	3375,70
603,35	3396,90
603,81	3298,10
604,26	3268,00
604,72	3445,50
605,17	3369,00
605,63	3437,90
606,08	3410,60
606,54	3277,80
606,99	3404,00
607,45	3379,60
607,90	3400,60
608,36	3463,50
608,81	3398,80
609,27	3645,30
609,72	3469,90
610,18	3396,20
610,63	3350,50
611,09	3408,30
611,54	3318,00
612,00	3560,10
612,45	3460,60
612,91	3417,10
613,36	3721,90
613,82	3292,70
614,27	3295,70
614,73	3296,90
615,18	3306,10
615,64	3382,50
616,09	3388,90
616,54	3330,60
617,00	3377,90
617,45	3379,50
617,91	3455,90
618,36	3337,30
618,82	3357,30
619,27	3383,40
619,72	3464,80
620,18	3362,50
620,63	3469,30
621,09	3488,90
621,54	3384,80
622,00	3471,70
622,45	3527,90
622,90	3499,10
623,36	3337,10
623,81	3328,60
624,27	3491,80
624,72	3285,90
625,17	3383,10
625,63	3414,10
626,08	3324,10
626,54	3385,70
626,99	3414,30
627,44	3327,70
627,90	3452,90
628,35	3469,00
628,81	3254,00
629,26	3386,30
629,71	3408,90
630,17	3328,90
630,62	3439,40
631,07	3390,40
631,53	3451,80
631,98	3438,50
632,43	3496,80
632,89	3345,60
633,34	3366,90
633,79	3329,70
634,25	3345,40
634,70	3296,00
635,15	3376,00
635,61	3339,70
636,06	3284,90
636,51	3389,70
636,97	3376,30
637,42	3321,50
637,87	3459,10
638,33	3494,90
638,78	3354,30
639,23	3398,00
639,69	3311,90
640,14	3259,90
640,59	3423,80
641,05	3505,20
641,50	3278,50
641,95	3363,70
642,40	3349,20
642,86	3280,80
643,31	3350,10
643,76	3449,60
644,22	3341,00
644,67	3307,90
645,12	3351,00
645,57	3324,30
646,03	3389,90
646,48	3398,10
646,93	3424,90
647,38	3456,10
647,84	3399,50
648,29	3426,90
648,74	3290,50
649,19	3499,80
649,65	3430,60
650,10	3816,60
650,55	3317,00
651,00	3318,70
651,46	3343,10
651,91	3418,40
652,36	3316,20
652,81	3364,60
653,27	3343,70
653,72	3312,00
654,17	3401,20
654,62	3416,30
655,07	3357,50
655,53	3304,40
655,98	3465,50
656,43	3309,10
656,88	3376,90
657,33	3433,90
657,79	3444,60
658,24	3326,50
658,69	3394,80
659,14	3305,50
659,59	3845,30
660,05	3335,30
660,50	3502,10
660,95	3371,20
661,40	3311,20
661,85	3369,70
662,30	3307,20
662,76	3241,50
663,21	3428,00
663,66	3348,10
664,11	3340,40
664,56	3365,90
665,01	3285,20
665,47	3398,90
665,92	3275,50
666,37	3400,40
666,82	3401,20
667,27	3646,50
667,72	3510,10
668,17	3318,90
668,62	3425,00
669,08	3307,00
669,53	3599,30
669,98	3237,90
670,43	3308,90
670,88	3506,30
671,33	3386,60
671,78	3547,50
672,23	3640,60
672,69	3374,70
673,14	3390,40
673,59	3511,80
674,04	3715,10
674,49	3393,70
674,94	3420,00
675,39	3274,40
675,84	3283,30
676,29	3383,90
676,74	3363,20
677,19	3353,10
677,64	3364,20
678,10	3656,10
678,55	3357,50
679,00	3352,60
679,45	3423,80
679,90	3339,50
680,35	3395,80
680,80	3371,80
681,25	3223,80
681,70	3221,30
682,15	3349,80
682,60	3382,10
683,05	3445,60
683,50	3437,40
683,95	3401,40
684,40	3487,80
684,85	3439,50
685,30	3408,50
685,75	3426,70
686,20	3359,40
686,65	3307,10
687,10	3397,60
687,55	3316,50
688,00	3387,80
688,45	3362,90
688,90	3667,40
689,35	3439,00
689,80	3257,70
690,25	3366,00
690,70	3368,40
691,15	3257,60
691,60	3378,20
692,05	3262,50
692,50	3370,10
692,95	3355,50
693,40	3431,90
693,85	3435,90
694,30	3385,00
694,75	3403,10
695,20	3849,90
695,65	3401,20
696,10	3387,60
696,55	3578,80
697,00	3374,40
697,45	3339,40
697,90	3411,00
698,35	3330,50
698,80	3448,20
699,24	3458,30
699,69	3329,00
700,14	3347,40
700,59	3450,00
701,04	3473,30
701,49	3800,30
701,94	3280,40
702,39	3540,70
702,84	3323,70
703,29	3342,90
703,74	3414,20
704,19	3364,80
704,63	3352,10
705,08	3501,70
705,53	3483,60
705,98	3478,80
706,43	3281,20
706,88	3432,10
707,33	3394,40
707,78	3374,00
708,22	3420,90
708,67	3472,40
709,12	3414,20
709,57	3339,00
710,02	3375,70
710,47	3365,40
710,92	3316,80
711,37	3441,60
711,81	3393,20
712,26	3386,80
712,71	3301,40
713,16	3574,00
713,61	3364,80
714,06	3400,20
714,50	3515,20
714,95	3470,20
715,40	3366,00
715,85	3407,60
716,30	3345,60
716,75	3341,40
717,19	3296,50
717,64	3258,50
718,09	3430,40
718,54	3561,00
718,99	3299,70
719,43	3282,50
719,88	3392,70
720,33	3371,70
720,78	3334,10
721,23	3407,90
721,67	3318,30
722,12	3442,80
722,57	3359,80
723,02	3283,50
723,47	3254,80
723,91	3394,90
724,36	3249,10
724,81	3431,20
725,26	3269,40
725,70	3351,20
726,15	3359,20
726,60	3381,10
727,05	3565,00
727,49	3298,20
727,94	3499,80
728,39	3411,90
728,84	3341,40
729,28	3483,70
729,73	3319,90
730,18	3466,80
730,63	3293,20
731,07	3392,80
731,52	3428,90
731,97	3400,90
732,41	3417,90
732,86	3320,10
733,31	3434,20
733,76	3392,70
734,20	3319,60
734,65	3466,00
735,10	3435,10
735,54	3396,80
735,99	3680,80
736,44	3310,90
736,89	3405,70
737,33	3457,90
737,78	3432,20
738,23	3392,00
738,67	3354,60
739,12	3376,90
739,57	3275,50
740,01	3493,40
740,46	3429,80
740,91	3325,80
741,35	3418,10
741,80	3455,80
742,25	3379,50
742,69	3393,80
743,14	3311,90
743,59	3311,90
744,03	3374,20
744,48	3487,60
744,92	3466,90
745,37	3436,70
745,82	3464,70
746,26	3534,20
746,71	3222,50
747,16	3308,10
747,60	3278,10
748,05	3425,40
748,49	3374,90
748,94	3351,10
749,39	3417,00
749,83	3697,10
750,28	3390,10
750,73	3355,70
751,17	3274,60
751,62	3350,20
752,06	3342,00
752,51	3366,60
752,95	3581,80
753,40	3328,50
753,85	3364,00
754,29	3282,50
754,74	3345,80
755,18	3289,20
755,63	3365,50
756,07	3379,90
756,52	3511,10
756,97	3359,90
757,41	3502,40
757,86	3394,30
758,30	3360,60
758,75	3362,00
759,19	3382,00
759,64	3287,50
760,08	3364,40
760,53	3412,10
760,98	3371,60
761,42	3437,00
761,87	3493,90
762,31	3352,80
762,76	3273,40
763,20	3354,00
763,65	3451,90
764,09	3364,10
764,54	3284,00
764,98	3327,60
765,43	3408,10
765,87	3301,10
766,32	3292,80
766,76	3325,20
767,21	3381,60
767,65	3391,20
768,10	3408,60
768,54	3442,00
768,99	3367,70
769,43	3570,40
769,88	3302,80
770,32	3363,70
770,77	3309,60
771,21	3287,50
771,65	3423,50
772,10	3380,10
772,54	3417,60
772,99	3261,10
773,43	3357,90
773,88	3345,30
774,32	3234,60
774,77	3382,80
775,21	3317,90
775,65	3402,60
776,10	3380,70
776,54	3289,20
776,99	3340,30
777,43	3357,80
777,88	3421,70
778,32	3433,50
778,76	3347,00
779,21	3401,50
779,65	3678,50
780,10	3522,80
780,54	3384,20
780,99	3487,70
781,43	3417,00
781,87	3309,80
782,32	3393,40
782,76	3275,20
783,20	3349,70
783,65	3429,20
784,09	3451,40
784,54	3372,10
784,98	3345,10
785,42	3349,10
785,87	3311,20
786,31	3428,10
786,75	3477,60
787,20	3498,80
787,64	3295,40
788,09	3317,30
788,53	3392,90
788,97	3315,40
789,42	3349,00
789,86	3328,70
790,30	3366,00
790,75	3303,70
791,19	3323,50
791,63	3490,00
792,08	3341,80
792,52	3387,70
792,96	3322,00
793,41	3832,70
793,85	3460,50
794,29	3393,20
794,74	3402,80
795,18	3378,10
795,62	3297,10
796,06	3412,30
796,51	3363,90
796,95	3385,70
797,39	3334,50
797,84	3288,70
798,28	3376,30
798,72	3477,20
799,16	3389,50
799,61	3308,60
800,05	3541,80
800,49	3417,80
800,94	3316,80
801,38	3418,10
801,82	3379,00
802,26	3310,20
802,71	3477,70
803,15	3553,70
803,59	3445,00
804,03	3398,70
804,48	3360,30
804,92	3320,70
805,36	3556,90
805,80	3607,00
806,25	3563,00
806,69	3448,30
807,13	3594,40
807,57	3367,10
808,01	3382,60
808,46	3299,90
808,90	3406,30
809,34	3385,70
809,78	3341,50
810,23	3313,70
810,67	3419,50
811,11	3518,70
811,55	3756,30
811,99	3344,10
812,44	3330,10
812,88	3442,70
813,32	3583,10
813,76	3462,00
814,20	3399,40
814,64	3470,80
815,09	3433,60
815,53	3409,50
815,97	3339,10
816,41	3318,60
816,85	3344,90
817,29	3441,40
817,74	3379,20
818,18	3497,50
818,62	3348,20
819,06	3455,10
819,50	3499,20
819,94	3355,50
820,39	3428,50
820,83	3344,90
821,27	3395,90
821,71	3307,50
822,15	3530,00
822,59	3307,90
823,03	3400,80
823,47	3393,00
823,92	3294,10
824,36	3396,90
824,80	3368,60
825,24	3412,60
825,68	3438,00
826,12	3291,00
826,56	3353,70
827,00	3240,40
827,44	3374,80
827,88	3459,40
828,33	3497,20
828,77	3331,50
829,21	3460,10
829,65	3417,10
830,09	3315,30
830,53	3542,80
830,97	3345,80
831,41	3621,30
831,85	3481,00
832,29	3450,50
832,73	3295,40
833,17	3365,50
833,61	3352,10
834,05	3511,70
834,49	3443,60
834,93	3360,20
835,37	3341,00
835,82	3478,80
836,26	3371,80
836,70	3410,10
837,14	3383,10
837,58	3481,20
838,02	3318,40
838,46	3331,40
838,90	3415,00
839,34	3375,60
839,78	3548,40
840,22	3614,00
840,66	3393,20
841,10	3509,40
841,54	3246,40
841,98	3320,70
842,42	3294,40
842,86	3340,20
843,30	3452,80
843,74	3384,10
844,18	3462,80
844,62	3382,20
845,06	3323,30
845,50	3429,10
845,94	3361,60
846,37	3462,40
846,81	3343,00
847,25	3320,50
847,69	3384,80
848,13	3315,30
848,57	3349,30
849,01	3340,80
849,45	3437,70
849,89	3506,20
850,33	3449,40
850,77	3354,80
851,21	3472,60
851,65	3318,10
852,09	3412,40
852,53	3480,90
852,97	3341,80
853,40	3333,40
853,84	3448,90
854,28	3286,80
854,72	3460,80
855,16	3291,80
855,60	3331,50
856,04	3490,20
856,48	3535,20
856,92	3377,00
857,36	3433,90
857,79	3392,20
858,23	3284,10
858,67	3522,90
859,11	3259,40
859,55	3331,80
859,99	3338,70
860,43	3355,40
860,87	3404,10
861,30	3450,00
861,74	3335,40
862,18	3370,80
862,62	3411,90
863,06	3332,00
863,50	3335,60
863,94	3442,50
864,37	3319,20
864,81	3378,50
865,25	3368,30
865,69	3272,50
866,13	3361,00
866,57	3250,00
867,00	3447,30
867,44	3304,00
867,88	3408,80
868,32	3360,20
868,76	3342,60
869,19	3412,60
869,63	3385,60
870,07	3519,90
870,51	3649,90
870,95	3281,00
871,38	3379,50
871,82	3390,30
872,26	3325,30
872,70	3396,30
873,14	3423,80
873,57	3367,60
874,01	3486,80
874,45	3456,60
874,89	3360,20
875,32	3292,30
875,76	3489,50
876,20	3250,10
876,64	3409,40
877,07	3382,30
877,51	3376,40
877,95	3384,20
878,39	3356,50
878,82	3409,60
879,26	3358,70
879,70	3540,30
880,14	3312,10
880,57	3289,60
881,01	3337,00
881,45	3388,10
881,89	3456,10
882,32	3349,70
882,76	3360,50
883,20	3347,70
883,63	3367,00
884,07	3293,00
884,51	3431,60
884,94	3380,90
885,38	3413,20
885,82	3453,90
886,26	3347,00
886,69	3322,10
887,13	3555,30
887,57	3300,00
888,00	3303,40
888,44	3375,00
888,88	3329,60
889,31	3723,40
889,75	3275,10
890,19	3447,90
890,62	3333,30
891,06	3429,40
891,50	3426,80
891,93	3281,20
892,37	3329,20
892,81	3355,80
893,24	3277,90
893,68	3333,30
894,11	3396,80
894,55	3348,90
894,99	3450,40
895,42	3349,90
895,86	3302,50
896,30	3380,90
896,73	3407,70
897,17	3294,80
897,60	3295,70
898,04	3320,70
898,48	3385,60
898,91	3488,80
899,35	3315,10
899,78	3299,60
900,22	3324,90
900,66	3450,90
901,09	3425,90
901,53	3344,10
901,96	3552,20
902,40	3577,40
902,84	3297,10
903,27	3354,10
903,71	3548,00
904,14	3304,50
904,58	3408,80
905,01	3312,20
905,45	3352,40
905,88	3289,60
906,32	3501,40
906,76	3390,00
907,19	3465,90
907,63	3411,70
908,06	3358,20
908,50	3430,90
908,93	3525,40
909,37	3337,90
909,80	3280,80
910,24	3410,40
910,67	3384,20
911,11	3368,10
911,54	3334,80
911,98	3339,50
912,41	3378,20
912,85	3348,50
913,28	3421,10
913,72	3418,50
914,15	3366,00
914,59	3272,40
915,02	3287,50
915,46	3334,60
915,89	3319,00
916,33	3457,10
916,76	3328,20
917,20	3471,80
917,63	3322,30
918,07	3450,80
918,50	3311,60
918,94	3356,60
919,37	3350,30
919,81	3417,50
920,24	3448,20
920,67	3376,90
921,11	3533,10
921,54	3413,60
921,98	3347,10
922,41	3294,30
922,85	3281,40
923,28	3403,00
923,72	3519,90
924,15	3439,40
924,58	3270,90
925,02	3435,30
925,45	3315,60
925,89	3444,50
926,32	3591,30
926,75	3343,90
927,19	3433,10
927,62	3264,20
928,06	3595,00
928,49	3364,80
928,92	3286,00
929,36	3449,90
929,79	3362,70
930,23	3400,50
930,66	3464,00
931,09	3323,50
931,53	3410,80
931,96	3233,50
932,39	3542,40
932,83	3465,50
933,26	3660,00
933,70	3370,00
934,13	3492,80
934,56	3445,30
935,00	3435,70
935,43	3409,60
935,86	3284,80
936,30	3361,30
936,73	3310,10
937,16	3411,50
937,60	3294,50
938,03	3429,40
938,46	3323,70
938,90	3349,30
939,33	3441,90
939,76	3289,30
940,19	3375,30
940,63	3481,30
941,06	3587,40
941,49	3315,10
941,93	3484,60
942,36	3316,30
942,79	3346,90
943,23	3437,80
943,66	3286,70
944,09	3261,30
944,52	3445,20
944,96	3426,70
945,39	3426,30
945,82	3381,60
946,26	3383,90
946,69	3399,70
947,12	3495,30
947,55	3382,60
947,99	3380,40
948,42	3426,40
948,85	3270,80
949,28	3276,70
949,72	3287,70
950,15	3643,10
950,58	3489,60
951,01	3357,30
951,45	3338,00
951,88	3419,00
952,31	3270,10
952,74	3454,30
953,17	3350,50
953,61	3576,00
954,04	3272,00
954,47	3310,70
954,90	3342,70
955,33	3330,20
955,77	3337,10
956,20	3416,60
956,63	3298,80
957,06	3426,30
957,49	3679,30
957,93	3282,20
958,36	3416,00
958,79	3389,30
959,22	3325,30
959,65	3317,70
960,08	3315,20
960,52	3224,50
960,95	3348,50
961,38	3429,40
961,81	3413,10
962,24	3464,70
962,67	3450,00
963,11	3303,00
963,54	3379,40
963,97	3338,70
964,40	3386,90
964,83	3365,40
965,26	3311,60
965,69	3455,30
966,13	3333,90
966,56	3368,30
966,99	3430,80
967,42	3324,60
967,85	3312,90
968,28	3486,40
968,71	3816,10
969,14	3431,20
969,57	3374,50
970,01	3412,50
970,44	3299,40
970,87	3331,20
971,30	3399,10
971,73	3334,70
972,16	3374,40
972,59	3269,10
973,02	3308,10
973,45	3357,80
973,88	3413,10
974,31	3343,30
974,74	3453,10
975,17	3397,00
975,61	3314,10
976,04	3304,80
976,47	3312,70
976,90	3384,40
977,33	3284,80
977,76	3427,50
978,19	3372,90
978,62	3344,70
979,05	3353,80
979,48	3331,20
979,91	3457,20
980,34	3422,50
980,77	3316,10
981,20	3399,30
981,63	3476,40
982,06	3357,60
982,49	3357,90
982,92	3340,00
983,35	3337,20
983,78	3321,70
984,21	3468,00
984,64	3408,80
985,07	3279,70
985,50	3233,20
985,93	3340,30
986,36	3430,30
986,79	3354,80
987,22	3313,90
987,65	3416,50
988,08	3362,30
988,51	3375,40
988,94	3362,70
989,37	3383,20
989,80	3370,50
990,23	3342,70
990,66	3393,80
991,09	3362,20
991,51	3396,00
991,94	3561,20
992,37	3336,40
992,80	3302,80
993,23	3359,60
993,66	3317,10
994,09	3333,80
994,52	3421,80
994,95	3429,50
995,38	3391,20
995,81	3377,80
996,24	3263,40
996,67	3293,00
997,09	3238,20
997,52	3469,50
997,95	3448,20
998,38	3332,00
998,81	3391,00
999,24	3295,20
999,67	3518,00
1000,10	3369,20
1000,53	3387,40
1000,95	3494,20
1001,38	3294,80
1001,81	3382,10
1002,24	3436,80
1002,67	3375,10
1003,10	3383,70
1003,53	3366,40
1003,95	3433,20
1004,38	3291,00
1004,81	3397,30
1005,24	3394,80
1005,67	3506,30
1006,10	3335,40
1006,52	3281,40
1006,95	3416,10
1007,38	3358,30
1007,81	3306,30
1008,24	3258,50
1008,67	3361,30
1009,09	3325,30
1009,52	3749,60
1009,95	3460,70
1010,38	3445,60
1010,81	3391,40
1011,23	3433,90
1011,66	3476,20
1012,09	3361,00
1012,52	3437,40
1012,95	3391,10
1013,37	3410,60
1013,80	3430,40
1014,23	3292,90
1014,66	3498,00
1015,08	3256,00
1015,51	3427,30
1015,94	3313,80
1016,37	3393,00
1016,80	3301,80
1017,22	3405,40
1017,65	3341,20
1018,08	5797,10
1018,51	3317,30
1018,93	3249,50
1019,36	3661,50
1019,79	3481,10
1020,21	3433,10
1020,64	3353,90
1021,07	3365,40
1021,50	3395,70
1021,92	3404,30
1022,35	3412,40
1022,78	3374,10
1023,21	3732,80
1023,63	3487,20
1024,06	3472,10
1024,49	3413,70
1024,91	3386,10
1025,34	3409,90
1025,77	3454,10
1026,19	3317,30
1026,62	3304,70
1027,05	3620,10
1027,47	3444,10
1027,90	3397,90
1028,33	3395,80
1028,75	3402,80
1029,18	3337,70
1029,61	3605,60
1030,03	3387,30
1030,46	3382,70
1030,89	3399,20
1031,31	3507,40
1031,74	3274,90
1032,17	3409,60
1032,59	3445,80
1033,02	3341,60
1033,45	3475,80
1033,87	3308,40
1034,30	3318,20
1034,73	3413,40
1035,15	3445,20
1035,58	3325,90
1036,00	3553,70
1036,43	3322,80
1036,86	3335,30
1037,28	3394,40
1037,71	3264,80
1038,13	3444,20
1038,56	3464,30
1038,99	3439,50
1039,41	3493,00
1039,84	3527,70
1040,26	3356,50
1040,69	3363,40
1041,11	3424,90
1041,54	3352,30
1041,97	3500,60
1042,39	3493,50
1042,82	3437,80
1043,24	3482,70
1043,67	3368,10
1044,09	3479,30
1044,52	3320,90
1044,95	3368,80
1045,37	3344,60
1045,80	3300,60
1046,22	3391,50
1046,65	3420,60
1047,07	3313,10
1047,50	3404,10
1047,92	3462,30
1048,35	3317,90
1048,77	3479,80
1049,20	3451,30
1049,62	3448,90
1050,05	3370,60
1050,47	3381,10
1050,90	3425,20
1051,32	3466,70
1051,75	3501,60
1052,17	3495,60
1052,60	3390,20
1053,02	3452,70
1053,45	3225,20
1053,87	3385,80
1054,30	3249,80
1054,72	3373,30
1055,15	3319,70
1055,57	3414,10
1056,00	3439,10
1056,42	3559,00
1056,85	3485,50
1057,27	3486,20
1057,70	3388,30
1058,12	3788,70
1058,54	3314,50
1058,97	3437,80
1059,39	3449,20
1059,82	3373,60
1060,24	3366,90
1060,67	3338,70
1061,09	3460,00
1061,51	3407,10
1061,94	3339,90
1062,36	3464,60
1062,79	3534,80
1063,21	3410,00
1063,64	3364,60
1064,06	3327,10
1064,48	3468,80
1064,91	3470,30
1065,33	3348,30
1065,76	3306,80
1066,18	3277,50
1066,60	3459,90
1067,03	3400,20
1067,45	3365,80
1067,87	3414,50
1068,30	3346,50
1068,72	3551,70
1069,15	3397,10
1069,57	3351,70
1069,99	3276,40
1070,42	3466,20
1070,84	3476,00
1071,26	3496,90
1071,69	3354,40
1072,11	3446,50
1072,53	3340,40
1072,96	3304,80
1073,38	3283,50
1073,80	3455,40
1074,23	3344,90
1074,65	3284,90
1075,07	3347,00
1075,50	3338,10
1075,92	3399,60
1076,34	3325,10
1076,77	3315,80
1077,19	3370,10
1077,61	3455,60
1078,04	3342,50
1078,46	3454,10
1078,88	3528,60
1079,30	3239,00
1079,73	3387,50
1080,15	3341,10
1080,57	3371,70
1081,00	3433,40
1081,42	3367,70
1081,84	3354,00
1082,26	3421,10
1082,69	3381,50
1083,11	3378,90
1083,53	3365,20
1083,95	3391,60
1084,38	3462,20
1084,80	3366,30
1085,22	3368,00
1085,64	3496,10
1086,07	3309,50
1086,49	3337,40
1086,91	3411,90
1087,33	3269,50
1087,76	3454,10
1088,18	6554,20
1088,60	3391,40
1089,02	3334,00
1089,45	3340,00
1089,87	3346,80
1090,29	3483,30
1090,71	3371,30
1091,13	3280,70
1091,56	3370,20
1091,98	3347,40
1092,40	3314,40
1092,82	3359,00
1093,24	3330,80
1093,66	3385,40
1094,09	3345,30
1094,51	3399,80
1094,93	3338,20
1095,35	3400,90
1095,77	3325,50
1096,19	3377,70
1096,62	3399,80
1097,04	3294,20
1097,46	3373,50
1097,88	3330,40
1098,30	3430,80
1098,72	3438,10
1099,15	3445,20
1099,57	3356,20
1099,99	3353,20
1100,41	3313,50
1100,83	3352,70
1101,25	3333,70
1101,67	3362,90
1102,09	3298,70
1102,52	3323,70
1102,94	3342,90
1103,36	3363,70
1103,78	3390,10
1104,20	3316,20
1104,62	3530,60
1105,04	3217,80
1105,46	3389,20
1105,88	3337,30
1106,30	3311,50
1106,73	3367,50
1107,15	3202,80
1107,57	3244,40
1107,99	3451,00
1108,41	3251,60
1108,83	3402,80
1109,25	3385,40
1109,67	3381,20
1110,09	3227,60
1110,51	3328,10
1110,93	3239,00
1111,35	3313,00
1111,77	3244,70
1112,19	3260,30
1112,61	3215,90
1113,03	3300,20
1113,45	3266,60
1113,87	3237,70
1114,29	3338,60
1114,71	3357,50
1115,13	3266,40
1115,55	3294,20
1115,98	3270,30
1116,40	3356,20
1116,82	3314,30
1117,24	3331,20
1117,66	3256,40
1118,08	2155,50
1118,50	2179,50
1118,91	2177,40
1119,33	2178,70
>>>>>End Processed Spectral Data<<<<<
