SpectraSuite Data File
++++++++++++++++++++++++++++++++++++
Date: Tue Jul 12 15:35:58 EEST 2011
User: OO Maya
Dark Spectrum Present: No
Reference Spectrum Present: No
Number of Sampled Component Spectra: 1
Spectrometers: MAYP11278
Integration Time (usec): 6000 (MAYP11278)
Spectra Averaged: 40 (MAYP11278)
Boxcar Smoothing: 0 (MAYP11278)
Correct for Electrical Dark: No (MAYP11278)
Strobe/Lamp Enabled: No (MAYP11278)
Correct for Detector Non-linearity: No (MAYP11278)
Correct for Stray Light: No (MAYP11278)
Number of Pixels in Processed Spectrum: 2068
>>>>>Begin Processed Spectral Data<<<<<
200,00	3025,10
200,47	3006,08
200,95	3004,60
201,42	3004,28
201,89	3011,60
202,37	3011,45
202,84	3011,25
203,31	3010,98
203,79	3012,25
204,26	3012,10
204,73	3014,88
205,20	3014,02
205,68	3015,88
206,15	3015,18
206,62	3016,82
207,10	3014,98
207,57	3015,82
208,04	3014,62
208,51	3013,48
208,99	3015,32
209,46	3012,45
209,93	3012,62
210,41	3012,50
210,88	3012,85
211,35	3013,28
211,82	3015,12
212,30	3012,62
212,77	3014,10
213,24	3014,60
213,71	3016,60
214,19	3014,52
214,66	3014,22
215,13	3014,05
215,60	3013,20
216,08	3013,68
216,55	3014,28
217,02	3012,95
217,49	3012,65
217,96	3013,62
218,44	3012,78
218,91	3014,82
219,38	3015,80
219,85	3014,45
220,33	3014,50
220,80	3013,60
221,27	3015,18
221,74	3013,92
222,21	3013,05
222,69	3013,82
223,16	3013,75
223,63	3014,68
224,10	3012,58
224,57	3014,60
225,04	3014,98
225,52	3013,50
225,99	3016,48
226,46	3015,05
226,93	3015,05
227,40	3014,10
227,87	3014,62
228,35	3014,20
228,82	3014,25
229,29	3013,98
229,76	3013,38
230,23	3014,28
230,70	3013,78
231,18	3013,28
231,65	3013,38
232,12	3013,32
232,59	3015,28
233,06	3012,72
233,53	3013,78
234,00	3015,00
234,48	3014,72
234,95	3012,55
235,42	3013,92
235,89	3013,12
236,36	3014,05
236,83	3012,00
237,30	3014,38
237,77	3012,98
238,24	3013,98
238,72	3014,80
239,19	3013,10
239,66	3014,52
240,13	3013,62
240,60	3016,22
241,07	3013,30
241,54	3014,68
242,01	3013,18
242,48	3013,85
242,95	3014,25
243,42	3014,95
243,90	3013,75
244,37	3013,18
244,84	3011,82
245,31	3014,15
245,78	3015,45
246,25	3014,62
246,72	3013,92
247,19	3013,38
247,66	3013,90
248,13	3014,00
248,60	3014,42
249,07	3012,60
249,54	3013,98
250,01	3013,22
250,48	3014,10
250,95	3012,12
251,42	3012,98
251,89	3013,95
252,36	3013,22
252,83	3014,08
253,30	3012,35
253,77	3014,98
254,24	3014,12
254,71	3012,88
255,18	3012,32
255,65	3014,65
256,12	3014,38
256,59	3014,30
257,06	3014,10
257,53	3014,95
258,00	3014,32
258,47	3013,85
258,94	3013,62
259,41	3014,35
259,88	3012,70
260,35	3012,70
260,82	3014,72
261,29	3015,78
261,76	3012,52
262,23	3014,32
262,70	3012,38
263,17	3015,15
263,64	3015,15
264,11	3014,18
264,58	3014,48
265,05	3014,08
265,52	3013,22
265,99	3016,55
266,46	3015,20
266,93	3014,85
267,40	3014,70
267,87	3014,55
268,34	3015,22
268,81	3014,10
269,28	3016,80
269,74	3013,78
270,21	3013,62
270,68	3015,35
271,15	3013,80
271,62	3015,05
272,09	3014,00
272,56	3013,32
273,03	3014,70
273,50	3014,70
273,97	3013,00
274,44	3015,02
274,90	3013,18
275,37	3015,05
275,84	3015,72
276,31	3014,70
276,78	3015,68
277,25	3014,80
277,72	3016,05
278,19	3013,90
278,66	3012,28
279,12	3014,35
279,59	3014,92
280,06	3013,82
280,53	3013,70
281,00	3013,30
281,47	3014,98
281,94	3014,00
282,40	3014,80
282,87	3012,85
283,34	3012,62
283,81	3013,65
284,28	3012,42
284,75	3013,48
285,21	3016,65
285,68	3015,65
286,15	3016,12
286,62	3013,70
287,09	3014,10
287,56	3014,65
288,02	3013,90
288,49	3014,25
288,96	3014,60
289,43	3013,85
289,90	3017,18
290,36	3013,22
290,83	3015,48
291,30	3017,90
291,77	3015,55
292,24	3015,50
292,70	3014,98
293,17	3015,32
293,64	3013,58
294,11	3014,82
294,58	3015,92
295,04	3015,28
295,51	3014,15
295,98	3015,78
296,45	3012,50
296,91	3014,75
297,38	3013,08
297,85	3013,35
298,32	3013,60
298,79	3015,40
299,25	3014,75
299,72	3016,10
300,19	3012,98
300,66	3015,35
301,12	3013,82
301,59	3015,10
302,06	3013,50
302,52	3015,22
302,99	3015,20
303,46	3014,00
303,93	3015,50
304,39	3013,30
304,86	3013,32
305,33	3013,60
305,80	3012,32
306,26	3014,52
306,73	3015,08
307,20	3014,68
307,66	3015,70
308,13	3015,58
308,60	3014,52
309,07	3013,82
309,53	3014,65
310,00	3014,52
310,47	3013,90
310,93	3013,75
311,40	3013,85
311,87	3014,00
312,33	3014,50
312,80	3015,78
313,27	3015,20
313,73	3014,58
314,20	3015,12
314,67	3012,60
315,13	3012,90
315,60	3012,82
316,07	3013,65
316,53	3013,85
317,00	3013,50
317,47	3012,68
317,93	3015,38
318,40	3014,50
318,87	3013,12
319,33	3013,75
319,80	3015,58
320,26	3014,28
320,73	3014,22
321,20	3015,60
321,66	3013,15
322,13	3013,55
322,60	3014,52
323,06	3013,62
323,53	3014,45
323,99	3012,72
324,46	3013,48
324,93	3014,25
325,39	3012,65
325,86	3012,25
326,32	3014,78
326,79	3013,50
327,26	3014,22
327,72	3013,90
328,19	3011,95
328,65	3017,65
329,12	3013,82
329,59	3014,22
330,05	3012,58
330,52	3013,58
330,98	3014,02
331,45	3014,95
331,91	3015,92
332,38	3011,82
332,85	3012,55
333,31	3014,58
333,78	3014,22
334,24	3014,20
334,71	3012,70
335,17	3013,42
335,64	3012,68
336,10	3013,18
336,57	3013,38
337,03	3013,78
337,50	3012,75
337,96	3013,75
338,43	3013,48
338,90	3012,58
339,36	3014,45
339,83	3014,88
340,29	3013,38
340,76	3013,08
341,22	3015,20
341,69	3014,72
342,15	3014,92
342,62	3014,10
343,08	3016,32
343,55	3014,22
344,01	3014,60
344,48	3016,10
344,94	3014,45
345,41	3014,88
345,87	3015,48
346,34	3013,68
346,80	3014,55
347,27	3013,30
347,73	3015,65
348,19	3013,58
348,66	3013,10
349,12	3015,60
349,59	3016,80
350,05	3011,65
350,52	3013,88
350,98	3013,12
351,45	3013,75
351,91	3015,55
352,38	3013,20
352,84	3015,40
353,30	3014,20
353,77	3013,00
354,23	3015,30
354,70	3015,20
355,16	3014,32
355,63	3013,92
356,09	3015,55
356,55	3015,32
357,02	3012,45
357,48	3015,32
357,95	3014,00
358,41	3015,62
358,87	3016,90
359,34	3013,82
359,80	3014,10
360,27	3015,80
360,73	3013,80
361,19	3014,18
361,66	3014,90
362,12	3016,80
362,59	3014,82
363,05	3013,78
363,51	3014,12
363,98	3015,10
364,44	3014,20
364,91	3014,88
365,37	3016,22
365,83	3017,02
366,30	3013,92
366,76	3016,05
367,22	3014,18
367,69	3015,02
368,15	3014,48
368,61	3013,52
369,08	3013,65
369,54	3014,28
370,00	3014,95
370,47	3014,82
370,93	3015,60
371,39	3015,15
371,86	3013,98
372,32	3013,20
372,78	3014,28
373,25	3015,32
373,71	3016,70
374,17	3014,15
374,64	3013,52
375,10	3014,55
375,56	3013,00
376,03	3014,15
376,49	3015,72
376,95	3015,00
377,42	3012,98
377,88	3013,55
378,34	3014,38
378,80	3015,60
379,27	3014,22
379,73	3015,18
380,19	3014,28
380,66	3013,25
381,12	3014,22
381,58	3012,55
382,04	3014,55
382,51	3013,25
382,97	3014,28
383,43	3014,02
383,89	3013,38
384,36	3013,05
384,82	3014,25
385,28	3013,48
385,74	3015,55
386,21	3012,78
386,67	3013,92
387,13	3013,58
387,59	3016,00
388,06	3013,30
388,52	3012,88
388,98	3013,32
389,44	3015,02
389,91	3014,30
390,37	3014,75
390,83	3013,72
391,29	3013,25
391,75	3013,62
392,22	3013,95
392,68	3014,40
393,14	3014,05
393,60	3014,72
394,06	3013,65
394,53	3018,52
394,99	3013,18
395,45	3013,50
395,91	3014,15
396,37	3015,68
396,84	3012,42
397,30	3013,30
397,76	3012,90
398,22	3014,75
398,68	3015,35
399,14	3011,42
399,61	3015,15
400,07	3013,58
400,53	3013,95
400,99	3015,78
401,45	3014,18
401,91	3013,50
402,38	3011,80
402,84	3013,92
403,30	3015,18
403,76	3014,35
404,22	3014,70
404,68	3014,75
405,14	3015,78
405,61	3017,52
406,07	3012,85
406,53	3013,15
406,99	3013,15
407,45	3012,65
407,91	3014,05
408,37	3012,75
408,83	3014,22
409,29	3013,68
409,76	3013,80
410,22	3012,32
410,68	3014,12
411,14	3014,32
411,60	3014,82
412,06	3014,88
412,52	3014,45
412,98	3012,80
413,44	3013,90
413,90	3016,00
414,36	3016,78
414,83	3015,72
415,29	3013,28
415,75	3013,70
416,21	3015,30
416,67	3017,42
417,13	3013,15
417,59	3015,38
418,05	3015,62
418,51	3013,95
418,97	3016,20
419,43	3013,45
419,89	3014,90
420,35	3014,05
420,81	3015,68
421,27	3013,40
421,73	3013,82
422,19	3015,62
422,65	3015,38
423,11	3014,95
423,57	3017,52
424,03	3016,00
424,49	3015,10
424,96	3015,70
425,42	3014,70
425,88	3015,75
426,34	3016,98
426,80	3016,68
427,26	3016,30
427,72	3016,45
428,18	3014,62
428,64	3015,75
429,10	3014,42
429,56	3016,20
430,02	3015,28
430,47	3015,90
430,93	3014,75
431,39	3016,88
431,85	3014,45
432,31	3014,98
432,77	3016,05
433,23	3017,08
433,69	3014,92
434,15	3016,85
434,61	3015,68
435,07	3016,38
435,53	3014,98
435,99	3015,65
436,45	3016,52
436,91	3016,32
437,37	3015,55
437,83	3017,50
438,29	3015,78
438,75	3016,32
439,21	3015,62
439,67	3018,00
440,12	3014,98
440,58	3015,45
441,04	3015,92
441,50	3016,02
441,96	3014,62
442,42	3014,82
442,88	3015,12
443,34	3016,58
443,80	3016,90
444,26	3014,80
444,72	3016,58
445,17	3016,62
445,63	3015,05
446,09	3014,78
446,55	3016,40
447,01	3016,05
447,47	3015,70
447,93	3016,62
448,39	3018,90
448,85	3015,25
449,30	3018,28
449,76	3015,18
450,22	3016,60
450,68	3014,62
451,14	3019,48
451,60	3016,45
452,06	3015,58
452,51	3016,08
452,97	3015,22
453,43	3017,65
453,89	3016,48
454,35	3016,68
454,81	3015,45
455,26	3016,52
455,72	3016,90
456,18	3014,95
456,64	3015,08
457,10	3015,30
457,56	3017,72
458,01	3016,60
458,47	3014,52
458,93	3016,92
459,39	3016,72
459,85	3016,32
460,30	3014,38
460,76	3016,98
461,22	3014,92
461,68	3018,20
462,14	3014,80
462,59	3016,65
463,05	3016,75
463,51	3015,60
463,97	3016,95
464,43	3016,62
464,88	3017,28
465,34	3015,42
465,80	3016,85
466,26	3015,95
466,71	3016,68
467,17	3014,38
467,63	3016,35
468,09	3016,40
468,54	3016,65
469,00	3013,78
469,46	3014,72
469,92	3016,12
470,37	3016,92
470,83	3016,22
471,29	3015,00
471,75	3015,75
472,20	3016,30
472,66	3017,55
473,12	3016,52
473,58	3015,30
474,03	3015,58
474,49	3016,65
474,95	3017,95
475,40	3015,10
475,86	3017,55
476,32	3016,38
476,78	3017,25
477,23	3017,62
477,69	3016,82
478,15	3014,45
478,60	3016,68
479,06	3016,05
479,52	3016,15
479,97	3016,88
480,43	3015,40
480,89	3016,05
481,34	3014,65
481,80	3016,55
482,26	3018,50
482,71	3015,50
483,17	3015,72
483,63	3016,32
484,08	3016,00
484,54	3018,20
485,00	3016,68
485,45	3015,98
485,91	3015,90
486,37	3016,20
486,82	3015,82
487,28	3019,28
487,74	3016,25
488,19	3018,40
488,65	3016,68
489,10	3015,12
489,56	3017,70
490,02	3016,58
490,47	3017,08
490,93	3017,25
491,39	3016,85
491,84	3017,22
492,30	3017,78
492,75	3016,72
493,21	3016,65
493,67	3017,08
494,12	3015,08
494,58	3016,78
495,03	3016,68
495,49	3017,65
495,95	3015,80
496,40	3017,12
496,86	3016,70
497,31	3018,38
497,77	3016,15
498,23	3018,65
498,68	3015,28
499,14	3017,48
499,59	3016,88
500,05	3016,28
500,50	3017,22
500,96	3019,05
501,41	3017,95
501,87	3016,62
502,33	3016,65
502,78	3018,22
503,24	3018,60
503,69	3018,50
504,15	3017,00
504,60	3018,00
505,06	3017,30
505,51	3020,30
505,97	3018,75
506,42	3015,92
506,88	3016,98
507,33	3019,80
507,79	3019,12
508,24	3017,68
508,70	3018,38
509,15	3018,80
509,61	3018,78
510,06	3019,20
510,52	3017,70
510,97	3019,52
511,43	3019,60
511,88	3017,90
512,34	3018,95
512,79	3019,90
513,25	3018,82
513,70	3017,10
514,16	3017,32
514,61	3019,00
515,07	3018,02
515,52	3019,15
515,98	3018,10
516,43	3017,52
516,89	3018,32
517,34	3017,65
517,80	3018,12
518,25	3018,82
518,70	3017,82
519,16	3018,85
519,61	3019,00
520,07	3016,85
520,52	3017,78
520,98	3016,92
521,43	3019,32
521,89	3018,02
522,34	3019,28
522,79	3020,45
523,25	3018,78
523,70	3019,22
524,16	3019,35
524,61	3019,55
525,06	3021,22
525,52	3020,10
525,97	3018,50
526,43	3021,72
526,88	3019,85
527,33	3018,92
527,79	3018,90
528,24	3018,18
528,70	3017,80
529,15	3018,28
529,60	3018,90
530,06	3019,00
530,51	3018,62
530,97	3018,95
531,42	3019,30
531,87	3018,30
532,33	3022,02
532,78	3019,68
533,23	3019,78
533,69	3020,28
534,14	3019,00
534,59	3018,92
535,05	3020,90
535,50	3018,62
535,96	3017,48
536,41	3020,42
536,86	3018,18
537,32	3017,52
537,77	3020,08
538,22	3020,50
538,68	3017,75
539,13	3020,75
539,58	3019,28
540,03	3019,10
540,49	3019,90
540,94	3020,62
541,39	3019,10
541,85	3018,65
542,30	3019,45
542,75	3018,58
543,21	3019,88
543,66	3018,25
544,11	3017,80
544,57	3018,85
545,02	3019,60
545,47	3019,50
545,92	3019,30
546,38	3021,65
546,83	3020,50
547,28	3024,38
547,73	3020,20
548,19	3021,28
548,64	3020,85
549,09	3018,42
549,55	3022,55
550,00	3020,02
550,45	3020,12
550,90	3022,00
551,36	3021,65
551,81	3023,05
552,26	3023,05
552,71	3022,42
553,17	3022,20
553,62	3025,35
554,07	3022,02
554,52	3023,15
554,97	3023,40
555,43	3023,02
555,88	3022,12
556,33	3024,25
556,78	3024,20
557,24	3025,45
557,69	3024,22
558,14	3024,58
558,59	3025,05
559,04	3022,82
559,50	3025,82
559,95	3025,08
560,40	3024,52
560,85	3025,42
561,30	3026,22
561,76	3027,00
562,21	3027,98
562,66	3026,88
563,11	3029,60
563,56	3028,62
564,01	3030,72
564,47	3028,08
564,92	3031,32
565,37	3031,48
565,82	3034,15
566,27	3031,68
566,72	3032,58
567,18	3034,75
567,63	3034,20
568,08	3034,02
568,53	3037,05
568,98	3038,32
569,43	3039,55
569,88	3039,08
570,34	3041,38
570,79	3042,35
571,24	3041,32
571,69	3046,20
572,14	3045,78
572,59	3047,48
573,04	3048,72
573,49	3053,75
573,94	3052,20
574,40	3054,15
574,85	3054,95
575,30	3061,95
575,75	3062,28
576,20	3062,28
576,65	3069,82
577,10	3070,40
577,55	3071,20
578,00	3078,98
578,45	3080,62
578,91	3083,60
579,36	3088,32
579,81	3093,95
580,26	3096,72
580,71	3100,20
581,16	3106,85
581,61	3114,25
582,06	3122,80
582,51	3123,80
582,96	3133,22
583,41	3139,70
583,86	3148,02
584,31	3153,85
584,76	3163,88
585,21	3173,20
585,66	3185,92
586,11	3193,95
586,56	3206,75
587,01	3217,02
587,46	3230,18
587,92	3242,20
588,37	3253,70
588,82	3269,05
589,27	3284,28
589,72	3299,92
590,17	3319,28
590,62	3335,02
591,07	3353,20
591,52	3374,95
591,97	3391,78
592,42	3421,08
592,87	3439,15
593,32	3463,70
593,77	3487,00
594,22	3518,90
594,67	3543,00
595,12	3575,40
595,56	3603,48
596,01	3636,95
596,46	3667,58
596,91	3708,62
597,36	3744,28
597,81	3785,55
598,26	3824,62
598,71	3869,48
599,16	3914,72
599,61	3965,82
600,06	4012,12
600,51	4065,65
600,96	4115,80
601,41	4174,62
601,86	4237,70
602,31	4305,65
602,76	4365,22
603,21	4445,08
603,66	4518,15
604,11	4594,98
604,55	4675,12
605,00	4754,25
605,45	4850,40
605,90	4945,10
606,35	5034,12
606,80	5144,38
607,25	5250,28
607,70	5360,98
608,15	5483,42
608,60	5608,68
609,04	5737,60
609,49	5878,82
609,94	6023,75
610,39	6157,98
610,84	6336,48
611,29	6493,15
611,74	6659,02
612,19	6834,25
612,64	7024,98
613,08	7220,52
613,53	7434,58
613,98	7642,70
614,43	7878,72
614,88	8108,72
615,33	8346,22
615,78	8610,48
616,22	8882,12
616,67	9158,55
617,12	9441,98
617,57	9755,30
618,02	10073,95
618,47	10411,92
618,91	10762,28
619,36	11135,82
619,81	11514,25
620,26	11892,28
620,71	12299,90
621,16	12721,55
621,60	13171,50
622,05	13628,32
622,50	14063,22
622,95	14554,45
623,40	15026,15
623,84	15536,62
624,29	16059,65
624,74	16574,55
625,19	17114,82
625,64	17686,00
626,08	18281,95
626,53	18892,45
626,98	19533,72
627,43	20168,80
627,87	20863,00
628,32	21542,58
628,77	22285,28
629,22	23084,65
629,66	23904,18
630,11	24779,42
630,56	25687,22
631,01	26661,78
631,46	27618,10
631,90	28682,05
632,35	29725,80
632,80	30850,25
633,25	32013,08
633,69	33193,20
634,14	34387,78
634,59	35561,60
635,03	36745,60
635,48	37984,30
635,93	39213,22
636,38	40410,80
636,82	41601,98
637,27	42721,75
637,72	43898,10
638,16	44987,95
638,61	46084,72
639,06	47233,12
639,51	48238,82
639,95	49290,25
640,40	50213,08
640,85	51006,35
641,29	51637,52
641,74	52167,40
642,19	52489,15
642,63	52525,60
643,08	52302,88
643,53	51770,12
643,97	50954,72
644,42	49798,60
644,87	48406,68
645,31	46753,38
645,76	44902,38
646,21	42939,78
646,65	40875,55
647,10	38772,58
647,55	36601,12
647,99	34499,98
648,44	32481,68
648,89	30579,78
649,33	28843,85
649,78	27190,98
650,23	25639,90
650,67	24179,68
651,12	22845,70
651,56	21582,18
652,01	20425,75
652,46	19351,35
652,90	18392,28
653,35	17478,12
653,80	16569,82
654,24	15747,98
654,69	14968,88
655,13	14225,00
655,58	13556,92
656,03	12920,78
656,47	12304,10
656,92	11709,48
657,36	11152,30
657,81	10605,75
658,26	10097,25
658,70	9641,02
659,15	9211,65
659,59	8803,00
660,04	8396,35
660,48	8045,80
660,93	7691,02
661,38	7368,88
661,82	7056,75
662,27	6771,70
662,71	6497,08
663,16	6268,72
663,60	6057,45
664,05	5841,75
664,49	5649,75
664,94	5472,42
665,38	5310,90
665,83	5144,48
666,28	5011,32
666,72	4883,95
667,17	4766,65
667,61	4654,60
668,06	4549,70
668,50	4457,50
668,95	4362,08
669,39	4287,22
669,84	4201,48
670,28	4129,90
670,73	4061,70
671,17	4001,00
671,62	3946,52
672,06	3889,90
672,51	3835,70
672,95	3784,55
673,40	3738,20
673,84	3692,10
674,29	3653,58
674,73	3615,98
675,18	3581,45
675,62	3549,52
676,07	3514,78
676,51	3486,12
676,95	3457,45
677,40	3430,88
677,84	3406,60
678,29	3381,40
678,73	3359,70
679,18	3339,75
679,62	3323,75
680,07	3303,30
680,51	3285,90
680,96	3264,88
681,40	3252,35
681,84	3240,35
682,29	3226,12
682,73	3216,38
683,18	3206,25
683,62	3195,58
684,07	3182,60
684,51	3172,52
684,95	3165,50
685,40	3156,92
685,84	3150,35
686,29	3141,30
686,73	3139,18
687,17	3127,42
687,62	3122,50
688,06	3120,22
688,51	3115,20
688,95	3108,68
689,39	3104,68
689,84	3102,08
690,28	3095,68
690,73	3092,95
691,17	3088,10
691,61	3085,62
692,06	3081,15
692,50	3079,55
692,94	3076,28
693,39	3074,62
693,83	3069,00
694,27	3068,52
694,72	3067,32
695,16	3062,22
695,60	3063,00
696,05	3058,90
696,49	3056,62
696,94	3054,02
697,38	3052,40
697,82	3052,40
698,27	3050,30
698,71	3051,25
699,15	3047,68
699,59	3046,32
700,04	3045,18
700,48	3047,02
700,92	3044,78
701,37	3041,65
701,81	3042,85
702,25	3040,80
702,70	3040,52
703,14	3040,70
703,58	3037,62
704,03	3037,20
704,47	3036,68
704,91	3037,02
705,35	3035,18
705,80	3035,12
706,24	3034,32
706,68	3036,58
707,13	3031,28
707,57	3032,60
708,01	3031,62
708,45	3030,55
708,90	3029,38
709,34	3028,78
709,78	3029,08
710,22	3031,32
710,67	3029,00
711,11	3029,42
711,55	3027,58
711,99	3029,62
712,44	3028,20
712,88	3027,40
713,32	3027,95
713,76	3028,42
714,21	3027,18
714,65	3026,12
715,09	3026,92
715,53	3027,65
715,97	3025,48
716,42	3026,35
716,86	3027,68
717,30	3024,95
717,74	3023,68
718,18	3026,68
718,63	3026,52
719,07	3024,82
719,51	3027,75
719,95	3025,30
720,39	3023,35
720,84	3026,52
721,28	3021,48
721,72	3023,48
722,16	3020,62
722,60	3022,08
723,04	3024,00
723,49	3023,48
723,93	3021,98
724,37	3022,60
724,81	3022,18
725,25	3022,55
725,69	3023,00
726,14	3023,40
726,58	3021,22
727,02	3021,30
727,46	3023,52
727,90	3021,50
728,34	3020,65
728,78	3022,98
729,23	3023,15
729,67	3022,48
730,11	3019,45
730,55	3021,98
730,99	3022,60
731,43	3024,00
731,87	3023,10
732,31	3020,75
732,76	3022,75
733,20	3022,90
733,64	3020,12
734,08	3022,82
734,52	3019,22
734,96	3022,18
735,40	3020,38
735,84	3020,22
736,28	3022,92
736,72	3020,48
737,16	3021,20
737,61	3019,82
738,05	3022,80
738,49	3019,65
738,93	3020,35
739,37	3022,10
739,81	3022,10
740,25	3020,22
740,69	3022,40
741,13	3020,75
741,57	3023,30
742,01	3021,02
742,45	3020,60
742,89	3020,88
743,33	3019,65
743,77	3019,82
744,21	3020,42
744,65	3020,92
745,09	3021,20
745,53	3021,10
745,98	3020,85
746,42	3018,70
746,86	3019,02
747,30	3019,45
747,74	3018,75
748,18	3018,00
748,62	3020,18
749,06	3021,52
749,50	3020,60
749,94	3018,85
750,38	3020,85
750,82	3021,05
751,26	3019,80
751,70	3019,95
752,14	3019,00
752,58	3020,05
753,02	3018,28
753,45	3020,55
753,89	3020,92
754,33	3020,70
754,77	3019,92
755,21	3019,10
755,65	3017,32
756,09	3019,10
756,53	3018,68
756,97	3018,28
757,41	3021,42
757,85	3019,62
758,29	3018,55
758,73	3018,98
759,17	3018,92
759,61	3017,40
760,05	3019,12
760,49	3017,80
760,93	3019,72
761,37	3017,40
761,80	3020,15
762,24	3019,32
762,68	3017,12
763,12	3019,05
763,56	3017,52
764,00	3018,45
764,44	3019,65
764,88	3017,02
765,32	3019,72
765,76	3019,02
766,20	3019,68
766,63	3017,28
767,07	3018,18
767,51	3018,55
767,95	3016,68
768,39	3018,32
768,83	3017,62
769,27	3017,42
769,71	3018,08
770,14	3018,10
770,58	3015,65
771,02	3016,32
771,46	3017,68
771,90	3019,05
772,34	3016,82
772,78	3017,45
773,21	3016,68
773,65	3019,70
774,09	3017,50
774,53	3018,85
774,97	3016,88
775,41	3017,45
775,84	3018,98
776,28	3016,38
776,72	3017,25
777,16	3018,10
777,60	3016,58
778,04	3015,72
778,47	3015,05
778,91	3017,48
779,35	3016,30
779,79	3017,05
780,23	3016,88
780,66	3017,40
781,10	3017,32
781,54	3016,62
781,98	3014,85
782,42	3017,22
782,85	3015,38
783,29	3017,45
783,73	3018,10
784,17	3019,15
784,61	3016,38
785,04	3017,22
785,48	3016,72
785,92	3015,08
786,36	3017,28
786,79	3016,58
787,23	3017,68
787,67	3016,02
788,11	3017,35
788,54	3017,90
788,98	3016,42
789,42	3015,72
789,86	3016,88
790,29	3017,18
790,73	3017,02
791,17	3016,92
791,60	3016,20
792,04	3016,10
792,48	3017,22
792,92	3015,32
793,35	3017,72
793,79	3015,80
794,23	3017,22
794,67	3015,98
795,10	3017,50
795,54	3017,45
795,98	3016,35
796,41	3014,82
796,85	3015,80
797,29	3019,98
797,72	3016,82
798,16	3015,65
798,60	3016,12
799,03	3016,22
799,47	3014,88
799,91	3015,48
800,34	3015,85
800,78	3017,45
801,22	3016,38
801,65	3015,82
802,09	3015,48
802,53	3016,85
802,96	3016,20
803,40	3013,72
803,84	3018,22
804,27	3017,20
804,71	3013,90
805,15	3016,78
805,58	3016,45
806,02	3014,80
806,46	3015,08
806,89	3015,02
807,33	3016,70
807,76	3015,48
808,20	3015,95
808,64	3016,38
809,07	3019,18
809,51	3018,98
809,95	3017,52
810,38	3015,52
810,82	3018,40
811,25	3013,42
811,69	3015,70
812,13	3015,68
812,56	3014,88
813,00	3014,52
813,43	3014,50
813,87	3014,82
814,30	3014,95
814,74	3017,02
815,18	3018,10
815,61	3016,08
816,05	3015,98
816,48	3015,12
816,92	3016,98
817,35	3016,32
817,79	3016,45
818,23	3014,65
818,66	3017,30
819,10	3017,38
819,53	3015,50
819,97	3015,78
820,40	3015,88
820,84	3015,32
821,27	3016,05
821,71	3016,85
822,14	3015,10
822,58	3014,92
823,01	3016,38
823,45	3015,12
823,88	3016,92
824,32	3015,20
824,75	3016,95
825,19	3014,20
825,63	3016,00
826,06	3015,05
826,50	3015,55
826,93	3014,50
827,37	3013,35
827,80	3015,30
828,23	3016,32
828,67	3015,58
829,10	3015,00
829,54	3015,48
829,97	3015,80
830,41	3014,68
830,84	3014,90
831,28	3015,50
831,71	3015,55
832,15	3014,48
832,58	3015,68
833,02	3013,98
833,45	3013,82
833,89	3017,05
834,32	3013,95
834,75	3016,72
835,19	3015,20
835,62	3015,52
836,06	3013,82
836,49	3014,88
836,93	3015,10
837,36	3015,38
837,79	3016,35
838,23	3014,55
838,66	3015,22
839,10	3017,22
839,53	3015,28
839,97	3013,65
840,40	3014,80
840,83	3016,50
841,27	3015,82
841,70	3014,80
842,14	3013,65
842,57	3013,90
843,00	3015,30
843,44	3016,02
843,87	3013,55
844,31	3016,82
844,74	3014,12
845,17	3013,20
845,61	3013,55
846,04	3014,20
846,47	3014,85
846,91	3015,45
847,34	3016,88
847,77	3015,05
848,21	3014,28
848,64	3015,70
849,08	3014,75
849,51	3015,22
849,94	3014,05
850,38	3014,58
850,81	3014,05
851,24	3014,15
851,68	3014,58
852,11	3014,75
852,54	3014,28
852,98	3015,75
853,41	3015,12
853,84	3014,15
854,28	3016,90
854,71	3014,70
855,14	3015,50
855,57	3015,50
856,01	3014,62
856,44	3012,75
856,87	3015,08
857,31	3015,00
857,74	3012,82
858,17	3015,18
858,61	3013,70
859,04	3015,65
859,47	3014,62
859,90	3014,05
860,34	3014,98
860,77	3014,15
861,20	3013,65
861,63	3014,45
862,07	3014,62
862,50	3015,35
862,93	3015,50
863,37	3012,92
863,80	3015,80
864,23	3015,20
864,66	3013,32
865,10	3013,80
865,53	3014,92
865,96	3013,75
866,39	3012,75
866,82	3016,35
867,26	3014,58
867,69	3013,08
868,12	3014,25
868,55	3013,88
868,99	3014,15
869,42	3013,02
869,85	3014,00
870,28	3014,75
870,71	3013,10
871,15	3015,12
871,58	3013,25
872,01	3014,98
872,44	3014,85
872,87	3015,60
873,31	3016,12
873,74	3012,98
874,17	3015,02
874,60	3013,82
875,03	3013,68
875,47	3014,80
875,90	3014,72
876,33	3014,78
876,76	3014,68
877,19	3014,88
877,62	3013,68
878,06	3014,52
878,49	3015,58
878,92	3013,20
879,35	3013,68
879,78	3013,12
880,21	3013,58
880,64	3015,22
881,08	3013,45
881,51	3014,58
881,94	3013,20
882,37	3014,88
882,80	3014,05
883,23	3012,95
883,66	3013,70
884,09	3014,55
884,53	3016,48
884,96	3013,15
885,39	3014,25
885,82	3012,55
886,25	3012,98
886,68	3011,22
887,11	3015,90
887,54	3014,78
887,97	3014,55
888,40	3013,75
888,84	3014,45
889,27	3011,48
889,70	3015,58
890,13	3011,68
890,56	3012,58
890,99	3013,92
891,42	3013,88
891,85	3017,30
892,28	3012,62
892,71	3015,10
893,14	3013,18
893,57	3015,10
894,00	3014,88
894,43	3012,62
894,86	3013,55
895,29	3013,92
895,73	3012,80
896,16	3014,30
896,59	3014,72
897,02	3013,15
897,45	3013,70
897,88	3014,28
898,31	3013,60
898,74	3014,62
899,17	3015,18
899,60	3014,82
900,03	3013,62
900,46	3014,58
900,89	3014,05
901,32	3014,40
901,75	3011,98
902,18	3012,30
902,61	3014,85
903,04	3014,02
903,47	3013,55
903,90	3014,88
904,33	3017,20
904,76	3014,38
905,19	3012,60
905,62	3014,12
906,05	3014,20
906,48	3013,82
906,91	3013,15
907,34	3012,78
907,76	3013,08
908,19	3014,32
908,62	3015,05
909,05	3013,55
909,48	3013,15
909,91	3012,70
910,34	3012,92
910,77	3013,18
911,20	3015,38
911,63	3012,88
912,06	3012,82
912,49	3011,98
912,92	3012,72
913,35	3014,02
913,78	3011,88
914,21	3013,38
914,63	3013,92
915,06	3012,82
915,49	3013,52
915,92	3012,80
916,35	3013,15
916,78	3011,78
917,21	3013,62
917,64	3013,55
918,07	3012,25
918,50	3013,25
918,92	3013,65
919,35	3013,90
919,78	3012,38
920,21	3013,62
920,64	3013,32
921,07	3014,18
921,50	3013,40
921,93	3015,62
922,35	3013,02
922,78	3013,05
923,21	3014,02
923,64	3013,45
924,07	3013,30
924,50	3012,70
924,92	3012,48
925,35	3012,28
925,78	3015,12
926,21	3014,35
926,64	3012,85
927,07	3013,12
927,49	3011,92
927,92	3013,65
928,35	3013,85
928,78	3012,55
929,21	3012,80
929,64	3011,08
930,06	3015,58
930,49	3012,20
930,92	3012,50
931,35	3013,98
931,78	3012,92
932,20	3014,28
932,63	3013,60
933,06	3012,45
933,49	3013,00
933,92	3012,42
934,34	3014,25
934,77	3013,72
935,20	3015,12
935,63	3012,02
936,05	3013,68
936,48	3013,70
936,91	3012,38
937,34	3014,02
937,76	3013,35
938,19	3011,80
938,62	3011,40
939,05	3012,82
939,47	3011,85
939,90	3012,20
940,33	3013,18
940,76	3011,60
941,18	3013,22
941,61	3011,95
942,04	3013,10
942,47	3012,40
942,89	3014,15
943,32	3012,35
943,75	3014,42
944,17	3012,02
944,60	3013,15
945,03	3014,28
945,46	3012,00
945,88	3011,00
946,31	3013,25
946,74	3012,22
947,16	3014,02
947,59	3010,25
948,02	3014,00
948,44	3012,92
948,87	3012,78
949,30	3013,52
949,72	3012,35
950,15	3014,22
950,58	3012,70
951,00	3011,72
951,43	3012,65
951,86	3015,98
952,28	3014,62
952,71	3012,02
953,14	3012,42
953,56	3013,98
953,99	3011,78
954,42	3013,75
954,84	3013,22
955,27	3014,62
955,70	3012,12
956,12	3012,22
956,55	3013,22
956,98	3011,78
957,40	3012,48
957,83	3012,98
958,25	3012,50
958,68	3013,15
959,11	3014,78
959,53	3011,75
959,96	3013,30
960,38	3014,62
960,81	3011,65
961,24	3012,65
961,66	3012,15
962,09	3011,68
962,51	3011,55
962,94	3012,55
963,37	3012,68
963,79	3013,72
964,22	3012,72
964,64	3013,05
965,07	3012,32
965,49	3013,55
965,92	3012,00
966,35	3013,32
966,77	3010,95
967,20	3011,98
967,62	3012,82
968,05	3013,12
968,47	3013,48
968,90	3011,82
969,32	3012,08
969,75	3012,88
970,17	3015,42
970,60	3013,68
971,03	3012,78
971,45	3013,78
971,88	3013,15
972,30	3012,00
972,73	3013,15
973,15	3012,78
973,58	3013,20
974,00	3012,10
974,43	3011,52
974,85	3012,05
975,28	3012,00
975,70	3010,32
976,13	3014,12
976,55	3011,32
976,98	3012,00
977,40	3013,58
977,83	3010,75
978,25	3012,50
978,68	3011,32
979,10	3012,30
979,53	3011,82
979,95	3013,22
980,37	3012,92
980,80	3011,40
981,22	3013,80
981,65	3012,35
982,07	3011,20
982,50	3014,25
982,92	3012,50
983,35	3013,52
983,77	3011,35
984,20	3012,70
984,62	3010,92
985,04	3011,62
985,47	3012,35
985,89	3012,02
986,32	3013,10
986,74	3010,40
987,17	3012,45
987,59	3013,30
988,01	3011,92
988,44	3011,75
988,86	3011,45
989,29	3011,30
989,71	3013,90
990,13	3012,22
990,56	3013,65
990,98	3012,62
991,41	3011,80
991,83	3012,62
992,25	3012,40
992,68	3011,68
993,10	3013,38
993,53	3013,50
993,95	3012,95
994,37	3011,90
994,80	3012,05
995,22	3012,28
995,64	3012,90
996,07	3012,08
996,49	3011,65
996,91	3012,58
997,34	3011,80
997,76	3012,30
998,18	3011,55
998,61	3012,75
999,03	3013,78
999,45	3012,18
999,88	3010,75
1000,30	3010,85
1000,72	3013,58
1001,15	3012,75
1001,57	3012,92
1001,99	3013,80
1002,42	3012,32
1002,84	3012,28
1003,26	3012,35
1003,69	3011,32
1004,11	3014,00
1004,53	3011,45
1004,96	3013,22
1005,38	3012,10
1005,80	3012,42
1006,22	3013,22
1006,65	3014,00
1007,07	3012,18
1007,49	3011,68
1007,92	3012,28
1008,34	3013,58
1008,76	3010,70
1009,18	3011,40
1009,61	3012,65
1010,03	3013,48
1010,45	3015,55
1010,87	3013,08
1011,30	3012,72
1011,72	3013,45
1012,14	3011,70
1012,56	3013,95
1012,99	3011,58
1013,41	3013,40
1013,83	3011,10
1014,25	3013,22
1014,68	3012,35
1015,10	3012,52
1015,52	3012,65
1015,94	3013,00
1016,37	3014,02
1016,79	3011,65
1017,21	3012,25
1017,63	3011,88
1018,05	3012,78
1018,48	3013,08
1018,90	3012,08
1019,32	3012,88
1019,74	3012,72
1020,16	3015,50
1020,59	3012,98
1021,01	3013,88
1021,43	3012,52
1021,85	3012,10
1022,27	3012,42
1022,69	3013,80
1023,12	3014,15
1023,54	3013,60
1023,96	3016,02
1024,38	3012,62
1024,80	3013,25
1025,22	3012,95
1025,65	3013,28
1026,07	3012,75
1026,49	3014,10
1026,91	3012,45
1027,33	3012,58
1027,75	3015,85
1028,17	3014,12
1028,60	3014,30
1029,02	3012,82
1029,44	3013,55
1029,86	3011,52
1030,28	3017,72
1030,70	3012,22
1031,12	3013,35
1031,54	3014,75
1031,97	3014,52
1032,39	3013,72
1032,81	3013,80
1033,23	3013,42
1033,65	3012,78
1034,07	3015,28
1034,49	3012,50
1034,91	3014,02
1035,33	3014,02
1035,75	3014,68
1036,18	3013,35
1036,60	3016,78
1037,02	3015,10
1037,44	3014,68
1037,86	3014,38
1038,28	3015,52
1038,70	3016,00
1039,12	3016,45
1039,54	3018,58
1039,96	3017,18
1040,38	3017,02
1040,80	3016,68
1041,22	3017,90
1041,64	3015,92
1042,06	3017,08
1042,48	3017,28
1042,90	3018,68
1043,32	3018,42
1043,74	3019,92
1044,17	3019,08
1044,59	3018,22
1045,01	3018,68
1045,43	3018,55
1045,85	3017,38
1046,27	3019,52
1046,69	3020,52
1047,11	3019,98
1047,53	3019,48
1047,95	3019,15
1048,37	3021,30
1048,79	3020,42
1049,21	3022,35
1049,63	3023,18
1050,05	3021,02
1050,47	3023,45
1050,89	3022,55
1051,31	3022,92
1051,72	3025,28
1052,14	3022,75
1052,56	3025,85
1052,98	3023,02
1053,40	3024,48
1053,82	3021,82
1054,24	3025,58
1054,66	3025,52
1055,08	3025,48
1055,50	3024,50
1055,92	3026,80
1056,34	3024,22
1056,76	3026,30
1057,18	3028,45
1057,60	3026,78
1058,02	3025,78
1058,44	3028,20
1058,86	3025,92
1059,28	3025,32
1059,69	3026,02
1060,11	3025,70
1060,53	3025,02
1060,95	3025,15
1061,37	3025,55
1061,79	3025,98
1062,21	3024,12
1062,63	3027,50
1063,05	3027,88
1063,47	3026,75
1063,88	3026,52
1064,30	3025,55
1064,72	3026,28
1065,14	3027,00
1065,56	3025,52
1065,98	3026,00
1066,40	3024,78
1066,82	3026,90
1067,23	3026,90
1067,65	3027,05
1068,07	3027,58
1068,49	3025,38
1068,91	3029,65
1069,33	3026,18
1069,75	3024,98
1070,16	3025,95
1070,58	3026,35
1071,00	3026,55
1071,42	3027,78
1071,84	3027,95
1072,26	3027,60
1072,67	3026,90
1073,09	3025,62
1073,51	3025,85
1073,93	3026,98
1074,35	3026,48
1074,77	3027,58
1075,18	3027,28
1075,60	3027,45
1076,02	3027,40
1076,44	3027,20
1076,86	3028,02
1077,27	3026,95
1077,69	3028,98
1078,11	3027,88
1078,53	3027,18
1078,94	3028,48
1079,36	3025,38
1079,78	3027,88
1080,20	3029,00
1080,62	3027,25
1081,03	3028,38
1081,45	3026,50
1081,87	3027,68
1082,29	3028,32
1082,70	3029,18
1083,12	3024,98
1083,54	3028,15
1083,96	3027,95
1084,37	3027,42
1084,79	3027,72
1085,21	3027,98
1085,63	3027,18
1086,04	3026,80
1086,46	3025,75
1086,88	3027,95
1087,30	3026,65
1087,71	3027,42
1088,13	3065,08
1088,55	3028,38
1088,96	3026,05
1089,38	3027,88
1089,80	3026,85
1090,22	3028,70
1090,63	3027,72
1091,05	3024,72
1091,47	3027,30
1091,88	3025,60
1092,30	3026,92
1092,72	3027,82
1093,13	3025,25
1093,55	3026,50
1093,97	3026,78
1094,38	3028,40
1094,80	3026,75
1095,22	3027,62
1095,63	3025,25
1096,05	3026,72
1096,47	3028,12
1096,88	3026,00
1097,30	3026,02
1097,72	3027,50
1098,13	3026,80
1098,55	3026,88
1098,97	3027,28
1099,38	3025,82
1099,80	3026,82
1100,21	3024,60
1100,63	3027,10
1101,05	3025,22
1101,46	3027,20
1101,88	3024,82
1102,30	3026,25
1102,71	3026,30
1103,13	3026,78
1103,54	3026,38
1103,96	3025,95
1104,38	3026,42
1104,79	3025,22
1105,21	3027,88
1105,62	3025,78
1106,04	3025,28
1106,46	3025,48
1106,87	3025,20
1107,29	3025,88
1107,70	3026,52
1108,12	3027,65
1108,54	3024,90
1108,95	3026,58
1109,37	3027,55
1109,78	3024,92
1110,20	3024,98
1110,61	3025,10
1111,03	3025,10
1111,44	3025,10
1111,86	3025,10
1112,28	3025,10
1112,69	3025,10
1113,11	3025,10
1113,52	3025,10
1113,94	3025,10
1114,35	3025,10
1114,77	3025,10
1115,18	3025,10
1115,60	3025,10
1116,01	3025,10
1116,43	3025,10
1116,84	3025,10
1117,26	3025,10
1117,67	3025,10
1118,09	3025,10
1118,50	3025,10
1118,92	3025,10
>>>>>End Processed Spectral Data<<<<<
