SpectraSuite Data File
++++++++++++++++++++++++++++++++++++
Date: Tue Jul 12 15:50:35 EEST 2011
User: OO Maya
Dark Spectrum Present: No
Reference Spectrum Present: No
Number of Sampled Component Spectra: 1
Spectrometers: MAYP11278
Integration Time (usec): 53000 (MAYP11278)
Spectra Averaged: 40 (MAYP11278)
Boxcar Smoothing: 0 (MAYP11278)
Correct for Electrical Dark: No (MAYP11278)
Strobe/Lamp Enabled: No (MAYP11278)
Correct for Detector Non-linearity: No (MAYP11278)
Correct for Stray Light: No (MAYP11278)
Number of Pixels in Processed Spectrum: 2068
>>>>>Begin Processed Spectral Data<<<<<
200,00	3091,95
200,47	3000,02
200,95	2999,32
201,42	2996,95
201,89	3096,55
202,37	3101,18
202,84	3101,00
203,31	3101,38
203,79	3108,95
204,26	3103,50
204,73	3100,48
205,20	3098,95
205,68	3103,88
206,15	3102,98
206,62	3111,55
207,10	3103,90
207,57	3112,88
208,04	3103,80
208,51	3103,90
208,99	3121,05
209,46	3106,30
209,93	3099,62
210,41	3104,18
210,88	3100,65
211,35	3105,32
211,82	3111,02
212,30	3103,98
212,77	3105,25
213,24	3112,05
213,71	3108,18
214,19	3110,28
214,66	3101,20
215,13	3109,90
215,60	3098,58
216,08	3110,50
216,55	3112,85
217,02	3104,22
217,49	3102,80
217,96	3113,65
218,44	3102,25
218,91	3108,28
219,38	3126,08
219,85	3106,85
220,33	3107,85
220,80	3102,62
221,27	3111,18
221,74	3110,22
222,21	3105,95
222,69	3105,02
223,16	3107,48
223,63	3107,48
224,10	3102,65
224,57	3118,40
225,04	3109,52
225,52	3106,12
225,99	3118,62
226,46	3108,90
226,93	3116,35
227,40	3109,15
227,87	3110,98
228,35	3111,32
228,82	3113,05
229,29	3104,78
229,76	3104,85
230,23	3113,40
230,70	3099,60
231,18	3102,18
231,65	3105,50
232,12	3104,80
232,59	3118,45
233,06	3102,85
233,53	3111,52
234,00	3103,68
234,48	3112,22
234,95	3104,15
235,42	3112,18
235,89	3110,05
236,36	3103,75
236,83	3103,78
237,30	3107,38
237,77	3102,62
238,24	3108,95
238,72	3114,72
239,19	3106,72
239,66	3110,62
240,13	3110,42
240,60	3114,10
241,07	3107,78
241,54	3106,05
242,01	3107,42
242,48	3112,55
242,95	3116,50
243,42	3108,15
243,90	3107,90
244,37	3103,48
244,84	3108,85
245,31	3110,48
245,78	3130,10
246,25	3111,40
246,72	3104,15
247,19	3105,82
247,66	3101,88
248,13	3115,52
248,60	3121,05
249,07	3106,28
249,54	3112,45
250,01	3111,60
250,48	3108,28
250,95	3108,18
251,42	3103,28
251,89	3112,75
252,36	3117,00
252,83	3108,68
253,30	3109,30
253,77	3115,82
254,24	3115,80
254,71	3104,50
255,18	3104,00
255,65	3115,02
256,12	3119,15
256,59	3110,92
257,06	3117,90
257,53	3113,45
258,00	3104,20
258,47	3111,28
258,94	3112,60
259,41	3109,72
259,88	3111,65
260,35	3099,85
260,82	3110,28
261,29	3114,68
261,76	3113,58
262,23	3118,70
262,70	3107,40
263,17	3122,18
263,64	3118,30
264,11	3107,18
264,58	3115,50
265,05	3113,48
265,52	3108,08
265,99	3112,98
266,46	3113,22
266,93	3115,10
267,40	3107,68
267,87	3110,92
268,34	3112,10
268,81	3113,18
269,28	3131,00
269,74	3111,12
270,21	3108,22
270,68	3110,85
271,15	3114,90
271,62	3120,18
272,09	3108,25
272,56	3106,68
273,03	3117,92
273,50	3103,75
273,97	3113,08
274,44	3112,58
274,90	3102,98
275,37	3114,80
275,84	3118,08
276,31	3106,62
276,78	3109,60
277,25	3111,75
277,72	3117,20
278,19	3107,55
278,66	3108,90
279,12	3110,00
279,59	3112,22
280,06	3101,10
280,53	3106,68
281,00	3110,05
281,47	3113,65
281,94	3114,32
282,40	3109,38
282,87	3112,72
283,34	3100,68
283,81	3103,88
284,28	3098,95
284,75	3110,38
285,21	3130,92
285,68	3115,45
286,15	3114,85
286,62	3106,22
287,09	3107,10
287,56	3114,05
288,02	3113,85
288,49	3105,22
288,96	3105,42
289,43	3105,10
289,90	3138,18
290,36	3108,55
290,83	3104,22
291,30	3133,12
291,77	3116,75
292,24	3129,10
292,70	3107,28
293,17	3118,50
293,64	3110,72
294,11	3110,92
294,58	3114,60
295,04	3111,20
295,51	3104,52
295,98	3115,48
296,45	3109,95
296,91	3112,55
297,38	3111,68
297,85	3104,55
298,32	3112,45
298,79	3121,22
299,25	3109,45
299,72	3113,50
300,19	3100,18
300,66	3121,78
301,12	3104,40
301,59	3112,38
302,06	3108,85
302,52	3118,15
302,99	3127,12
303,46	3105,62
303,93	3120,88
304,39	3109,42
304,86	3114,78
305,33	3113,08
305,80	3105,60
306,26	3113,50
306,73	3113,45
307,20	3125,60
307,66	3123,80
308,13	3115,92
308,60	3115,05
309,07	3114,85
309,53	3108,05
310,00	3126,58
310,47	3111,55
310,93	3113,55
311,40	3107,92
311,87	3117,80
312,33	3119,30
312,80	3117,10
313,27	3105,45
313,73	3118,42
314,20	3117,62
314,67	3104,65
315,13	3110,50
315,60	3105,50
316,07	3115,15
316,53	3115,18
317,00	3112,72
317,47	3115,90
317,93	3107,45
318,40	3113,48
318,87	3114,38
319,33	3111,55
319,80	3117,95
320,26	3119,72
320,73	3114,28
321,20	3114,08
321,66	3115,65
322,13	3109,12
322,60	3118,25
323,06	3113,42
323,53	3124,95
323,99	3108,48
324,46	3112,25
324,93	3114,92
325,39	3107,08
325,86	3104,15
326,32	3116,82
326,79	3113,95
327,26	3113,12
327,72	3116,15
328,19	3112,92
328,65	3131,28
329,12	3113,25
329,59	3111,35
330,05	3104,25
330,52	3114,58
330,98	3124,72
331,45	3117,90
331,91	3111,42
332,38	3100,92
332,85	3106,75
333,31	3121,90
333,78	3109,98
334,24	3114,10
334,71	3105,12
335,17	3113,62
335,64	3109,38
336,10	3111,95
336,57	3109,30
337,03	3109,80
337,50	3114,95
337,96	3113,78
338,43	3113,45
338,90	3116,50
339,36	3109,72
339,83	3113,88
340,29	3109,68
340,76	3106,42
341,22	3115,40
341,69	3113,70
342,15	3127,30
342,62	3104,92
343,08	3126,48
343,55	3119,42
344,01	3115,65
344,48	3122,12
344,94	3112,70
345,41	3117,18
345,87	3137,50
346,34	3106,98
346,80	3111,75
347,27	3108,85
347,73	3116,50
348,19	3113,08
348,66	3111,12
349,12	3127,00
349,59	3118,90
350,05	3108,70
350,52	3108,38
350,98	3108,52
351,45	3119,45
351,91	3120,88
352,38	3112,00
352,84	3113,18
353,30	3118,02
353,77	3115,32
354,23	3113,22
354,70	3116,20
355,16	3107,50
355,63	3116,80
356,09	3119,15
356,55	3110,70
357,02	3111,70
357,48	3124,00
357,95	3109,00
358,41	3122,80
358,87	3116,22
359,34	3106,48
359,80	3115,45
360,27	3118,75
360,73	3115,20
361,19	3110,18
361,66	3116,68
362,12	3126,50
362,59	3115,32
363,05	3111,72
363,51	3114,90
363,98	3117,65
364,44	3118,00
364,91	3119,62
365,37	3115,15
365,83	3127,60
366,30	3112,05
366,76	3124,35
367,22	3107,82
367,69	3130,68
368,15	3119,65
368,61	3105,78
369,08	3109,92
369,54	3109,12
370,00	3113,88
370,47	3122,02
370,93	3123,08
371,39	3112,60
371,86	3116,00
372,32	3112,25
372,78	3112,18
373,25	3116,70
373,71	3130,70
374,17	3118,30
374,64	3111,30
375,10	3117,40
375,56	3111,25
376,03	3107,55
376,49	3116,40
376,95	3113,88
377,42	3115,28
377,88	3105,55
378,34	3110,00
378,80	3122,52
379,27	3106,28
379,73	3121,08
380,19	3117,90
380,66	3112,08
381,12	3110,65
381,58	3117,52
382,04	3111,75
382,51	3106,15
382,97	3117,52
383,43	3118,40
383,89	3108,75
384,36	3110,15
384,82	3117,00
385,28	3105,42
385,74	3122,85
386,21	3112,85
386,67	3109,82
387,13	3107,65
387,59	3115,98
388,06	3118,15
388,52	3113,28
388,98	3115,00
389,44	3116,98
389,91	3119,15
390,37	3125,15
390,83	3114,48
391,29	3124,88
391,75	3125,72
392,22	3107,32
392,68	3116,32
393,14	3117,42
393,60	3125,02
394,06	3117,30
394,53	3151,02
394,99	3117,48
395,45	3113,12
395,91	3115,45
396,37	3131,52
396,84	3110,75
397,30	3110,35
397,76	3123,88
398,22	3118,55
398,68	3126,82
399,14	3112,12
399,61	3122,08
400,07	3119,65
400,53	3121,35
400,99	3122,40
401,45	3119,08
401,91	3120,52
402,38	3118,55
402,84	3116,08
403,30	3135,75
403,76	3119,90
404,22	3129,85
404,68	3119,10
405,14	3126,18
405,61	3154,20
406,07	3115,72
406,53	3127,08
406,99	3129,52
407,45	3120,90
407,91	3123,48
408,37	3122,50
408,83	3120,70
409,29	3131,52
409,76	3119,88
410,22	3129,20
410,68	3123,92
411,14	3135,42
411,60	3134,75
412,06	3132,98
412,52	3128,25
412,98	3145,38
413,44	3141,82
413,90	3146,12
414,36	3153,28
414,83	3151,92
415,29	3143,30
415,75	3155,40
416,21	3155,75
416,67	3167,28
417,13	3158,52
417,59	3166,58
418,05	3172,10
418,51	3167,38
418,97	3184,62
419,43	3174,65
419,89	3199,12
420,35	3187,62
420,81	3211,62
421,27	3205,25
421,73	3209,60
422,19	3234,45
422,65	3237,80
423,11	3257,45
423,57	3268,92
424,03	3291,72
424,49	3294,38
424,96	3327,15
425,42	3337,50
425,88	3358,12
426,34	3393,55
426,80	3402,85
427,26	3427,68
427,72	3463,85
428,18	3497,32
428,64	3536,25
429,10	3569,90
429,56	3623,42
430,02	3658,10
430,47	3721,38
430,93	3768,10
431,39	3838,20
431,85	3898,90
432,31	3975,02
432,77	4063,30
433,23	4148,90
433,69	4231,68
434,15	4341,85
434,61	4445,88
435,07	4579,78
435,53	4694,10
435,99	4841,50
436,45	4991,72
436,91	5157,40
437,37	5323,78
437,83	5523,60
438,29	5732,50
438,75	5942,70
439,21	6188,42
439,67	6469,75
440,12	6718,02
440,58	7012,68
441,04	7350,52
441,50	7690,88
441,96	8051,72
442,42	8456,32
442,88	8883,40
443,34	9344,28
443,80	9837,02
444,26	10366,32
444,72	10948,32
445,17	11541,18
445,63	12177,18
446,09	12896,65
446,55	13667,80
447,01	14435,92
447,47	15318,45
447,93	16250,80
448,39	17242,95
448,85	18293,78
449,30	19443,65
449,76	20616,90
450,22	21859,65
450,68	23182,40
451,14	24587,72
451,60	26083,55
452,06	27625,80
452,51	29245,28
452,97	30960,10
453,43	32764,60
453,89	34588,45
454,35	36464,88
454,81	38379,18
455,26	40344,58
455,72	42405,52
456,18	44390,82
456,64	46353,35
457,10	48339,38
457,56	50297,22
458,01	52209,90
458,47	54061,55
458,93	55779,42
459,39	57419,08
459,85	58861,50
460,30	60270,48
460,76	61417,85
461,22	62360,90
461,68	62783,02
462,14	63644,82
462,59	63984,62
463,05	63854,75
463,51	63873,45
463,97	63893,15
464,43	63209,60
464,88	62691,68
465,34	61481,20
465,80	60909,10
466,26	59728,35
466,71	58400,10
467,17	56982,95
467,63	55446,38
468,09	53852,08
468,54	52233,25
469,00	50513,65
469,46	48755,45
469,92	47105,32
470,37	45420,12
470,83	43786,70
471,29	42269,75
471,75	40749,05
472,20	39305,50
472,66	37930,85
473,12	36645,02
473,58	35417,05
474,03	34262,05
474,49	33141,42
474,95	32140,50
475,40	31142,45
475,86	30241,00
476,32	29348,65
476,78	28508,58
477,23	27673,52
477,69	26888,05
478,15	26165,95
478,60	25378,12
479,06	24649,50
479,52	23939,10
479,97	23256,58
480,43	22586,32
480,89	21899,60
481,34	21239,38
481,80	20603,70
482,26	19966,25
482,71	19282,98
483,17	18631,75
483,63	18002,90
484,08	17394,15
484,54	16776,30
485,00	16187,18
485,45	15616,25
485,91	15064,90
486,37	14565,30
486,82	14036,62
487,28	13580,38
487,74	13105,38
488,19	12674,78
488,65	12262,98
489,10	11848,75
489,56	11467,62
490,02	11108,68
490,47	10759,10
490,93	10447,48
491,39	10140,55
491,84	9856,60
492,30	9579,98
492,75	9326,22
493,21	9079,70
493,67	8841,88
494,12	8606,58
494,58	8408,10
495,03	8226,90
495,49	8037,00
495,95	7858,08
496,40	7688,55
496,86	7516,85
497,31	7373,58
497,77	7207,18
498,23	7062,70
498,68	6914,38
499,14	6778,28
499,59	6626,70
500,05	6499,42
500,50	6361,60
500,96	6257,90
501,41	6127,82
501,87	6012,20
502,33	5888,05
502,78	5791,08
503,24	5670,15
503,69	5571,85
504,15	5479,15
504,60	5382,80
505,06	5288,05
505,51	5213,22
505,97	5129,98
506,42	5029,42
506,88	4963,12
507,33	4878,88
507,79	4828,20
508,24	4736,65
508,70	4677,92
509,15	4609,65
509,61	4553,05
510,06	4505,88
510,52	4441,92
510,97	4392,68
511,43	4346,20
511,88	4300,90
512,34	4248,68
512,79	4216,92
513,25	4172,28
513,70	4129,30
514,16	4100,10
514,61	4066,80
515,07	4025,32
515,52	4001,65
515,98	3964,78
516,43	3929,42
516,89	3898,50
517,34	3870,55
517,80	3845,70
518,25	3821,78
518,70	3794,22
519,16	3774,80
519,61	3758,70
520,07	3716,70
520,52	3699,52
520,98	3676,68
521,43	3664,80
521,89	3631,32
522,34	3633,78
522,79	3610,72
523,25	3579,32
523,70	3566,50
524,16	3559,38
524,61	3540,25
525,06	3542,20
525,52	3506,42
525,97	3490,60
526,43	3499,55
526,88	3468,22
527,33	3447,45
527,79	3432,92
528,24	3425,55
528,70	3423,92
529,15	3413,60
529,60	3400,38
530,06	3383,70
530,51	3369,55
530,97	3381,18
531,42	3365,82
531,87	3351,40
532,33	3353,52
532,78	3340,78
533,23	3332,42
533,69	3333,48
534,14	3319,25
534,59	3311,68
535,05	3304,15
535,50	3295,28
535,96	3297,42
536,41	3292,48
536,86	3283,42
537,32	3270,00
537,77	3276,05
538,22	3276,18
538,68	3257,00
539,13	3264,10
539,58	3253,90
540,03	3250,20
540,49	3245,52
540,94	3246,88
541,39	3238,80
541,85	3228,60
542,30	3232,28
542,75	3225,52
543,21	3231,02
543,66	3225,02
544,11	3226,32
544,57	3214,60
545,02	3220,20
545,47	3209,80
545,92	3209,92
546,38	3217,30
546,83	3207,68
547,28	3239,98
547,73	3193,32
548,19	3211,35
548,64	3201,38
549,09	3189,10
549,55	3195,38
550,00	3195,90
550,45	3183,25
550,90	3205,45
551,36	3174,95
551,81	3196,85
552,26	3187,20
552,71	3182,55
553,17	3178,10
553,62	3182,50
554,07	3178,10
554,52	3181,35
554,97	3177,68
555,43	3172,62
555,88	3173,00
556,33	3170,92
556,78	3165,88
557,24	3182,35
557,69	3168,40
558,14	3158,98
558,59	3168,68
559,04	3168,10
559,50	3180,35
559,95	3164,85
560,40	3161,60
560,85	3165,00
561,30	3160,00
561,76	3156,95
562,21	3159,95
562,66	3159,70
563,11	3170,65
563,56	3156,40
564,01	3166,92
564,47	3146,68
564,92	3157,22
565,37	3170,75
565,82	3151,90
566,27	3150,25
566,72	3151,05
567,18	3149,70
567,63	3145,32
568,08	3153,18
568,53	3151,32
568,98	3149,90
569,43	3146,28
569,88	3146,08
570,34	3147,78
570,79	3154,95
571,24	3140,85
571,69	3149,40
572,14	3146,05
572,59	3144,20
573,04	3146,98
573,49	3153,12
573,94	3141,50
574,40	3139,70
574,85	3143,48
575,30	3152,22
575,75	3138,88
576,20	3140,30
576,65	3147,20
577,10	3140,12
577,55	3139,58
578,00	3143,58
578,45	3144,28
578,91	3140,65
579,36	3143,75
579,81	3144,30
580,26	3135,20
580,71	3137,50
581,16	3140,48
581,61	3145,20
582,06	3141,42
582,51	3130,35
582,96	3138,80
583,41	3126,92
583,86	3145,08
584,31	3132,75
584,76	3133,50
585,21	3129,12
585,66	3141,50
586,11	3137,20
586,56	3132,00
587,01	3136,98
587,46	3136,82
587,92	3133,82
588,37	3131,88
588,82	3134,78
589,27	3135,28
589,72	3126,45
590,17	3132,32
590,62	3135,90
591,07	3130,95
591,52	3135,45
591,97	3128,00
592,42	3148,82
592,87	3129,28
593,32	3129,80
593,77	3127,22
594,22	3130,95
594,67	3137,70
595,12	3125,62
595,56	3134,38
596,01	3127,25
596,46	3125,35
596,91	3133,40
597,36	3135,40
597,81	3123,28
598,26	3123,10
598,71	3137,38
599,16	3125,65
599,61	3128,60
600,06	3124,78
600,51	3133,72
600,96	3126,55
601,41	3126,98
601,86	3140,42
602,31	3124,40
602,76	3123,12
603,21	3132,70
603,66	3132,30
604,11	3134,30
604,55	3126,40
605,00	3117,72
605,45	3123,92
605,90	3133,52
606,35	3121,18
606,80	3126,38
607,25	3135,90
607,70	3124,75
608,15	3128,30
608,60	3115,85
609,04	3145,02
609,49	3120,48
609,94	3126,40
610,39	3118,05
610,84	3113,72
611,29	3128,30
611,74	3121,40
612,19	3127,00
612,64	3123,70
613,08	3112,90
613,53	3122,98
613,98	3121,48
614,43	3122,12
614,88	3127,35
615,33	3121,72
615,78	3142,55
616,22	3128,42
616,67	3122,88
617,12	3118,08
617,57	3123,35
618,02	3112,52
618,47	3134,85
618,91	3124,28
619,36	3121,58
619,81	3140,95
620,26	3116,15
620,71	3115,08
621,16	3113,35
621,60	3112,98
622,05	3119,75
622,50	3119,95
622,95	3115,12
623,40	3119,25
623,84	3122,20
624,29	3126,60
624,74	3114,42
625,19	3117,22
625,64	3117,40
626,08	3125,08
626,53	3117,50
626,98	3126,02
627,43	3126,68
627,87	3118,00
628,32	3128,15
628,77	3128,15
629,22	3125,52
629,66	3116,95
630,11	3114,10
630,56	3128,42
631,01	3112,48
631,46	3116,95
631,90	3122,18
632,35	3114,88
632,80	3114,70
633,25	3119,82
633,69	3115,22
634,14	3124,00
634,59	3123,70
635,03	3110,32
635,48	3117,80
635,93	3120,85
636,38	3116,15
636,82	3123,15
637,27	3118,12
637,72	3124,38
638,16	3121,58
638,61	3128,48
639,06	3115,55
639,51	3114,98
639,95	3114,65
640,40	3116,30
640,85	3110,88
641,29	3114,45
641,74	3114,02
642,19	3110,15
642,63	3114,90
643,08	3116,72
643,53	3113,88
643,97	3122,02
644,42	3121,85
644,87	3113,72
645,31	3118,12
645,76	3110,55
646,21	3109,18
646,65	3118,65
647,10	3123,85
647,55	3109,58
647,99	3111,42
648,44	3113,82
648,89	3105,65
649,33	3114,20
649,78	3121,02
650,23	3112,45
650,67	3108,12
651,12	3112,55
651,56	3108,02
652,01	3116,98
652,46	3118,12
652,90	3119,22
653,35	3120,32
653,80	3118,70
654,24	3117,98
654,69	3107,72
655,13	3125,02
655,58	3115,98
656,03	3146,22
656,47	3110,88
656,92	3110,42
657,36	3112,80
657,81	3115,55
658,26	3109,60
658,70	3116,68
659,15	3109,45
659,59	3110,40
660,04	3115,90
660,48	3115,15
660,93	3113,00
661,38	3106,62
661,82	3118,20
662,27	3108,60
662,71	3111,70
663,16	3120,72
663,60	3117,55
664,05	3108,85
664,49	3116,85
664,94	3109,42
665,38	3143,38
665,83	3111,55
666,28	3118,58
666,72	3113,98
667,17	3106,38
667,61	3114,30
668,06	3108,55
668,50	3102,55
668,95	3116,92
669,39	3110,90
669,84	3109,88
670,28	3110,92
670,73	3108,22
671,17	3113,05
671,62	3105,82
672,06	3115,05
672,51	3115,12
672,95	3133,52
673,40	3124,60
673,84	3107,80
674,29	3113,60
674,73	3108,58
675,18	3125,62
675,62	3104,28
676,07	3108,25
676,51	3118,45
676,95	3109,78
677,40	3120,98
677,84	3128,65
678,29	3111,40
678,73	3110,82
679,18	3118,42
679,62	3136,40
680,07	3116,32
680,51	3114,22
680,96	3104,80
681,40	3105,50
681,84	3111,15
682,29	3113,30
682,73	3111,85
683,18	3109,98
683,62	3133,98
684,07	3108,80
684,51	3109,80
684,95	3112,62
685,40	3110,12
685,84	3111,28
686,29	3111,45
686,73	3100,65
687,17	3100,05
687,62	3110,20
688,06	3111,32
688,51	3114,78
688,95	3116,95
689,39	3113,52
689,84	3122,15
690,28	3115,60
690,73	3113,92
691,17	3116,85
691,61	3107,58
692,06	3106,68
692,50	3113,75
692,94	3109,45
693,39	3114,00
693,83	3108,62
694,27	3134,28
694,72	3116,40
695,16	3104,50
695,60	3112,75
696,05	3108,98
696,49	3104,30
696,94	3110,28
697,38	3105,58
697,82	3110,42
698,27	3107,60
698,71	3115,38
699,15	3115,35
699,59	3111,85
700,04	3110,48
700,48	3140,52
700,92	3111,50
701,37	3110,25
701,81	3124,70
702,25	3108,70
702,70	3105,85
703,14	3113,25
703,58	3104,55
704,03	3114,90
704,47	3117,48
704,91	3106,40
705,35	3107,45
705,80	3115,70
706,24	3116,38
706,68	3136,30
707,13	3103,58
707,57	3122,00
708,01	3107,55
708,45	3106,45
708,90	3113,18
709,34	3111,00
709,78	3108,65
710,22	3118,08
710,67	3118,85
711,11	3116,42
711,55	3103,62
711,99	3114,98
712,44	3107,35
712,88	3109,52
713,32	3114,70
713,76	3116,80
714,21	3110,55
714,65	3109,18
715,09	3111,78
715,53	3109,20
715,97	3106,80
716,42	3113,70
716,86	3112,52
717,30	3108,25
717,74	3104,48
718,18	3124,95
718,63	3109,50
719,07	3111,35
719,51	3120,05
719,95	3114,58
720,39	3108,78
720,84	3111,00
721,28	3107,82
721,72	3107,60
722,16	3102,90
722,60	3100,22
723,04	3111,88
723,49	3120,22
723,93	3105,88
724,37	3103,20
724,81	3111,58
725,25	3109,10
725,69	3104,70
726,14	3111,98
726,58	3104,72
727,02	3111,90
727,46	3109,12
727,90	3102,35
728,34	3100,70
728,78	3111,95
729,23	3101,42
729,67	3112,52
730,11	3101,60
730,55	3109,92
730,99	3108,50
731,43	3108,88
731,87	3123,92
732,31	3105,60
732,76	3117,38
733,20	3115,15
733,64	3108,90
734,08	3116,85
734,52	3106,90
734,96	3114,32
735,40	3102,82
735,84	3110,75
736,28	3114,12
736,72	3110,82
737,16	3108,72
737,61	3105,02
738,05	3114,80
738,49	3108,95
738,93	3106,80
739,37	3115,85
739,81	3112,45
740,25	3107,10
740,69	3128,02
741,13	3104,20
741,57	3111,12
742,01	3114,55
742,45	3113,40
742,89	3108,58
743,33	3106,02
743,77	3108,48
744,21	3100,78
744,65	3119,48
745,09	3109,10
745,53	3104,32
745,98	3112,42
746,42	3112,65
746,86	3109,38
747,30	3110,12
747,74	3104,18
748,18	3103,88
748,62	3107,28
749,06	3117,38
749,50	3114,90
749,94	3107,40
750,38	3115,00
750,82	3120,28
751,26	3098,22
751,70	3105,08
752,14	3098,62
752,58	3113,20
753,02	3107,18
753,45	3105,42
753,89	3113,00
754,33	3130,42
754,77	3110,08
755,21	3107,70
755,65	3101,30
756,09	3107,78
756,53	3105,50
756,97	3105,72
757,41	3121,82
757,85	3103,60
758,29	3104,08
758,73	3101,98
759,17	3106,40
759,61	3103,02
760,05	3109,52
760,49	3107,62
760,93	3117,90
761,37	3107,32
761,80	3118,65
762,24	3109,85
762,68	3107,02
763,12	3107,72
763,56	3108,12
764,00	3102,42
764,44	3105,82
764,88	3109,22
765,32	3109,12
765,76	3113,75
766,20	3115,98
766,63	3106,90
767,07	3100,55
767,51	3104,98
767,95	3113,18
768,39	3106,15
768,83	3101,35
769,27	3106,02
769,71	3110,25
770,14	3102,88
770,58	3101,48
771,02	3101,92
771,46	3107,15
771,90	3107,75
772,34	3110,10
772,78	3110,02
773,21	3108,60
773,65	3121,38
774,09	3102,82
774,53	3109,15
774,97	3104,18
775,41	3101,58
775,84	3108,98
776,28	3107,25
776,72	3110,82
777,16	3099,98
777,60	3106,30
778,04	3104,45
778,47	3097,02
778,91	3106,32
779,35	3101,72
779,79	3108,68
780,23	3107,75
780,66	3103,40
781,10	3104,12
781,54	3105,90
781,98	3112,00
782,42	3109,80
782,85	3106,82
783,29	3108,90
783,73	3127,95
784,17	3118,75
784,61	3107,12
785,04	3113,70
785,48	3111,45
785,92	3103,40
786,36	3108,52
786,79	3099,78
787,23	3106,82
787,67	3113,20
788,11	3112,58
788,54	3107,90
788,98	3104,55
789,42	3104,18
789,86	3100,72
790,29	3111,95
790,73	3112,08
791,17	3116,45
791,60	3101,65
792,04	3102,72
792,48	3107,72
792,92	3102,18
793,35	3104,25
793,79	3102,70
794,23	3108,40
794,67	3100,22
795,10	3103,48
795,54	3112,50
795,98	3106,10
796,41	3106,40
796,85	3103,55
797,29	3135,15
797,72	3114,50
798,16	3105,10
798,60	3108,48
799,03	3108,50
799,47	3102,52
799,91	3108,30
800,34	3104,82
800,78	3107,12
801,22	3101,80
801,65	3098,85
802,09	3105,60
802,53	3115,02
802,96	3107,65
803,40	3102,52
803,84	3119,55
804,27	3109,80
804,71	3101,78
805,15	3107,62
805,58	3107,62
806,02	3101,62
806,46	3112,20
806,89	3120,42
807,33	3108,72
807,76	3108,40
808,20	3105,20
808,64	3102,08
809,07	3120,30
809,51	3122,75
809,95	3119,82
810,38	3113,48
810,82	3122,00
811,25	3102,82
811,69	3106,28
812,13	3099,58
812,56	3109,58
813,00	3104,62
813,43	3100,90
813,87	3099,85
814,30	3108,10
814,74	3115,20
815,18	3131,18
815,61	3105,62
816,05	3100,92
816,48	3110,70
816,92	3119,28
817,35	3114,88
817,79	3106,68
818,23	3109,20
818,66	3110,75
819,10	3108,72
819,53	3101,95
819,97	3102,88
820,40	3104,48
820,84	3111,20
821,27	3106,30
821,71	3113,32
822,14	3102,70
822,58	3111,75
823,01	3113,20
823,45	3102,58
823,88	3108,08
824,32	3104,95
824,75	3103,95
825,19	3103,18
825,63	3115,68
826,06	3099,90
826,50	3104,70
826,93	3105,88
827,37	3101,40
827,80	3106,72
828,23	3104,02
828,67	3105,52
829,10	3108,25
829,54	3100,90
829,97	3104,55
830,41	3093,45
830,84	3105,05
831,28	3108,08
831,71	3113,88
832,15	3102,88
832,58	3110,35
833,02	3107,48
833,45	3103,28
833,89	3116,75
834,32	3103,65
834,75	3124,32
835,19	3112,82
835,62	3110,58
836,06	3096,68
836,49	3102,85
836,93	3102,92
837,36	3112,42
837,79	3109,20
838,23	3102,60
838,66	3102,98
839,10	3113,20
839,53	3103,20
839,97	3107,10
840,40	3105,38
840,83	3115,10
841,27	3100,08
841,70	3101,02
842,14	3106,78
842,57	3102,58
843,00	3116,52
843,44	3121,48
843,87	3103,35
844,31	3112,90
844,74	3095,75
845,17	3099,72
845,61	3101,08
846,04	3100,70
846,47	3107,25
846,91	3105,85
847,34	3108,30
847,77	3105,82
848,21	3101,38
848,64	3108,60
849,08	3105,22
849,51	3110,65
849,94	3100,20
850,38	3101,38
850,81	3101,82
851,24	3099,55
851,68	3102,72
852,11	3102,80
852,54	3107,68
852,98	3109,55
853,41	3108,65
853,84	3104,02
854,28	3111,50
854,71	3098,42
855,14	3106,05
855,57	3112,05
856,01	3100,42
856,44	3101,70
856,87	3107,70
857,31	3097,28
857,74	3107,85
858,17	3097,30
858,61	3101,82
859,04	3110,30
859,47	3115,20
859,90	3101,90
860,34	3107,28
860,77	3103,88
861,20	3098,60
861,63	3113,82
862,07	3093,00
862,50	3098,40
862,93	3103,22
863,37	3102,02
863,80	3104,25
864,23	3109,58
864,66	3099,65
865,10	3103,25
865,53	3108,35
865,96	3098,50
866,39	3100,65
866,82	3109,92
867,26	3099,45
867,69	3104,88
868,12	3103,22
868,55	3095,70
868,99	3102,35
869,42	3096,38
869,85	3106,92
870,28	3098,18
870,71	3105,22
871,15	3100,15
871,58	3100,52
872,01	3108,68
872,44	3100,55
872,87	3114,25
873,31	3120,80
873,74	3098,85
874,17	3103,72
874,60	3104,75
875,03	3099,90
875,47	3105,12
875,90	3105,95
876,33	3104,02
876,76	3110,25
877,19	3107,68
877,62	3103,72
878,06	3098,15
878,49	3112,90
878,92	3094,82
879,35	3107,15
879,78	3101,85
880,21	3101,82
880,64	3104,42
881,08	3104,18
881,51	3105,68
881,94	3101,02
882,37	3117,70
882,80	3098,82
883,23	3096,68
883,66	3102,70
884,09	3104,08
884,53	3110,92
884,96	3101,90
885,39	3101,30
885,82	3103,60
886,25	3100,20
886,68	3099,95
887,11	3105,90
887,54	3103,15
887,97	3105,15
888,40	3109,72
888,84	3103,42
889,27	3098,82
889,70	3116,12
890,13	3095,50
890,56	3099,88
890,99	3103,02
891,42	3099,65
891,85	3127,10
892,28	3095,65
892,71	3106,92
893,14	3099,60
893,57	3105,70
894,00	3107,40
894,43	3095,52
894,86	3101,02
895,29	3100,92
895,73	3096,82
896,16	3100,42
896,59	3104,78
897,02	3101,92
897,45	3104,85
897,88	3101,38
898,31	3096,60
898,74	3104,78
899,17	3107,20
899,60	3097,60
900,03	3098,30
900,46	3100,08
900,89	3102,15
901,32	3110,78
901,75	3098,00
902,18	3100,28
902,61	3098,42
903,04	3107,70
903,47	3105,92
903,90	3098,95
904,33	3115,95
904,76	3119,38
905,19	3100,48
905,62	3101,50
906,05	3115,38
906,48	3099,78
906,91	3103,68
907,34	3099,15
907,76	3102,00
908,19	3097,32
908,62	3112,15
909,05	3102,25
909,48	3109,45
909,91	3104,02
910,34	3102,88
910,77	3105,25
911,20	3114,15
911,63	3100,02
912,06	3093,92
912,49	3104,30
912,92	3105,02
913,35	3101,55
913,78	3098,60
914,21	3099,30
914,63	3103,65
915,06	3100,55
915,49	3107,05
915,92	3105,05
916,35	3102,10
916,78	3096,65
917,21	3097,35
917,64	3100,90
918,07	3098,00
918,50	3109,72
918,92	3098,90
919,35	3112,75
919,78	3099,00
920,21	3107,20
920,64	3100,22
921,07	3103,00
921,50	3101,40
921,93	3107,18
922,35	3107,40
922,78	3102,65
923,21	3113,68
923,64	3107,20
924,07	3098,12
924,50	3096,62
924,92	3095,60
925,35	3103,90
925,78	3113,70
926,21	3106,58
926,64	3096,40
927,07	3107,58
927,49	3098,00
927,92	3107,78
928,35	3118,32
928,78	3097,80
929,21	3105,82
929,64	3094,58
930,06	3121,18
930,49	3100,88
930,92	3096,72
931,35	3110,75
931,78	3100,18
932,20	3103,05
932,63	3110,10
933,06	3100,90
933,49	3105,92
933,92	3095,08
934,34	3114,80
934,77	3111,02
935,20	3121,35
935,63	3099,72
936,05	3110,12
936,48	3108,48
936,91	3107,45
937,34	3105,18
937,76	3097,08
938,19	3099,05
938,62	3099,90
939,05	3104,20
939,47	3097,58
939,90	3105,38
940,33	3099,85
940,76	3100,12
941,18	3104,98
941,61	3096,58
942,04	3104,02
942,47	3108,22
942,89	3118,28
943,32	3099,10
943,75	3110,35
944,17	3096,92
944,60	3099,70
945,03	3108,75
945,46	3094,10
945,88	3095,62
946,31	3104,88
946,74	3099,78
947,16	3106,10
947,59	3102,62
948,02	3102,98
948,44	3104,65
948,87	3109,55
949,30	3101,35
949,72	3103,38
950,15	3106,42
950,58	3093,68
951,00	3096,78
951,43	3096,25
951,86	3121,28
952,28	3112,80
952,71	3101,75
953,14	3100,20
953,56	3103,62
953,99	3093,88
954,42	3107,82
954,84	3099,35
955,27	3114,00
955,70	3095,50
956,12	3097,90
956,55	3101,08
956,98	3099,90
957,40	3099,30
957,83	3106,80
958,25	3096,45
958,68	3106,90
959,11	3125,20
959,53	3096,52
959,96	3105,92
960,38	3102,60
960,81	3099,00
961,24	3095,58
961,66	3097,68
962,09	3092,30
962,51	3099,78
962,94	3108,50
963,37	3105,92
963,79	3110,42
964,22	3108,15
964,64	3097,40
965,07	3104,50
965,49	3100,90
965,92	3103,02
966,35	3100,68
966,77	3097,75
967,20	3107,12
967,62	3099,88
968,05	3099,25
968,47	3105,35
968,90	3097,38
969,32	3098,62
969,75	3110,15
970,17	3134,82
970,60	3106,45
971,03	3102,00
971,45	3104,32
971,88	3097,45
972,30	3099,48
972,73	3107,12
973,15	3097,20
973,58	3101,82
974,00	3096,52
974,43	3096,05
974,85	3099,50
975,28	3103,15
975,70	3099,08
976,13	3104,38
976,55	3104,38
976,98	3097,20
977,40	3096,15
977,83	3099,30
978,25	3102,68
978,68	3095,40
979,10	3104,05
979,53	3103,28
979,95	3101,45
980,37	3100,30
980,80	3098,10
981,22	3108,20
981,65	3104,28
982,07	3095,62
982,50	3105,42
982,92	3110,12
983,35	3101,05
983,77	3099,88
984,20	3097,42
984,62	3100,72
985,04	3099,78
985,47	3109,30
985,89	3107,50
986,32	3097,95
986,74	3093,25
987,17	3099,28
987,59	3104,28
988,01	3100,98
988,44	3099,10
988,86	3104,00
989,29	3103,30
989,71	3102,88
990,13	3100,95
990,56	3104,25
990,98	3101,78
991,41	3098,02
991,83	3102,80
992,25	3100,85
992,68	3101,35
993,10	3114,50
993,53	3100,15
993,95	3095,15
994,37	3099,88
994,80	3099,32
995,22	3099,40
995,64	3105,38
996,07	3107,72
996,49	3100,08
996,91	3100,75
997,34	3092,52
997,76	3096,72
998,18	3091,25
998,61	3110,10
999,03	3107,58
999,45	3097,35
999,88	3101,00
1000,30	3094,90
1000,72	3110,78
1001,15	3104,42
1001,57	3101,68
1001,99	3110,65
1002,42	3097,65
1002,84	3101,65
1003,26	3104,00
1003,69	3100,20
1004,11	3103,48
1004,53	3101,32
1004,96	3106,42
1005,38	3095,58
1005,80	3102,42
1006,22	3104,75
1006,65	3109,25
1007,07	3101,20
1007,49	3095,88
1007,92	3105,95
1008,34	3098,05
1008,76	3095,40
1009,18	3093,48
1009,61	3102,70
1010,03	3100,45
1010,45	3129,75
1010,87	3107,62
1011,30	3107,45
1011,72	3105,00
1012,14	3106,28
1012,56	3107,55
1012,99	3101,15
1013,41	3103,52
1013,83	3102,90
1014,25	3104,62
1014,68	3106,38
1015,10	3095,18
1015,52	3109,18
1015,94	3092,80
1016,37	3108,30
1016,79	3098,35
1017,21	3101,42
1017,63	3096,10
1018,05	3103,38
1018,48	3099,90
1018,90	3099,38
1019,32	3101,55
1019,74	3091,98
1020,16	3123,10
1020,59	3109,22
1021,01	3107,85
1021,43	3099,70
1021,85	3101,40
1022,27	3102,38
1022,69	3105,92
1023,12	3104,15
1023,54	3100,98
1023,96	3127,75
1024,38	3111,40
1024,80	3106,60
1025,22	3106,88
1025,65	3103,50
1026,07	3102,68
1026,49	3108,75
1026,91	3099,30
1027,33	3096,10
1027,75	3117,28
1028,17	3108,80
1028,60	3102,98
1029,02	3103,15
1029,44	3104,95
1029,86	3097,50
1030,28	3119,38
1030,70	3102,55
1031,12	3100,68
1031,54	3106,90
1031,97	3112,65
1032,39	3096,20
1032,81	3103,80
1033,23	3105,78
1033,65	3102,10
1034,07	3108,12
1034,49	3099,35
1034,91	3095,75
1035,33	3105,68
1035,75	3108,62
1036,18	3100,35
1036,60	3112,48
1037,02	3096,32
1037,44	3099,30
1037,86	3105,40
1038,28	3093,30
1038,70	3107,10
1039,12	3108,22
1039,54	3106,90
1039,96	3111,88
1040,38	3113,58
1040,80	3101,20
1041,22	3101,05
1041,64	3103,65
1042,06	3101,65
1042,48	3112,80
1042,90	3111,62
1043,32	3106,48
1043,74	3107,65
1044,17	3102,35
1044,59	3108,55
1045,01	3098,10
1045,43	3103,02
1045,85	3102,98
1046,27	3095,08
1046,69	3105,75
1047,11	3105,50
1047,53	3098,50
1047,95	3104,42
1048,37	3110,80
1048,79	3096,50
1049,21	3110,62
1049,63	3106,10
1050,05	3108,60
1050,47	3101,65
1050,89	3099,65
1051,31	3106,35
1051,72	3107,72
1052,14	3111,88
1052,56	3111,20
1052,98	3105,45
1053,40	3108,72
1053,82	3092,85
1054,24	3104,02
1054,66	3092,48
1055,08	3102,95
1055,50	3099,18
1055,92	3103,25
1056,34	3107,62
1056,76	3117,78
1057,18	3107,65
1057,60	3109,48
1058,02	3103,75
1058,44	3133,30
1058,86	3098,95
1059,28	3106,30
1059,69	3107,45
1060,11	3103,65
1060,53	3098,48
1060,95	3098,60
1061,37	3108,18
1061,79	3103,02
1062,21	3101,50
1062,63	3108,72
1063,05	3114,18
1063,47	3106,15
1063,88	3102,48
1064,30	3096,30
1064,72	3110,95
1065,14	3111,85
1065,56	3102,78
1065,98	3098,32
1066,40	3094,58
1066,82	3107,50
1067,23	3104,80
1067,65	3103,82
1068,07	3104,50
1068,49	3101,60
1068,91	3115,55
1069,33	3104,70
1069,75	3099,28
1070,16	3096,75
1070,58	3110,38
1071,00	3109,95
1071,42	3112,32
1071,84	3102,58
1072,26	3107,00
1072,67	3099,75
1073,09	3097,45
1073,51	3096,15
1073,93	3105,05
1074,35	3100,95
1074,77	3094,68
1075,18	3100,48
1075,60	3100,40
1076,02	3103,48
1076,44	3098,95
1076,86	3095,62
1077,27	3104,30
1077,69	3106,82
1078,11	3101,98
1078,53	3108,40
1078,94	3114,85
1079,36	3091,42
1079,78	3105,15
1080,20	3100,88
1080,62	3104,65
1081,03	3105,38
1081,45	3100,75
1081,87	3099,60
1082,29	3105,50
1082,70	3102,42
1083,12	3103,62
1083,54	3101,08
1083,96	3102,15
1084,37	3108,90
1084,79	3102,10
1085,21	3101,65
1085,63	3109,22
1086,04	3098,52
1086,46	3099,92
1086,88	3104,10
1087,30	3093,88
1087,71	3108,10
1088,13	3446,00
1088,55	3099,85
1088,96	3098,50
1089,38	3101,22
1089,80	3101,45
1090,22	3111,48
1090,63	3101,90
1091,05	3098,25
1091,47	3105,48
1091,88	3103,78
1092,30	3096,78
1092,72	3104,22
1093,13	3102,00
1093,55	3102,72
1093,97	3099,85
1094,38	3103,20
1094,80	3101,78
1095,22	3103,75
1095,63	3099,52
1096,05	3101,35
1096,47	3108,48
1096,88	3096,80
1097,30	3102,52
1097,72	3097,55
1098,13	3108,25
1098,55	3106,02
1098,97	3107,92
1099,38	3104,32
1099,80	3101,68
1100,21	3097,85
1100,63	3100,70
1101,05	3097,75
1101,46	3100,92
1101,88	3094,92
1102,30	3100,88
1102,71	3101,20
1103,13	3103,48
1103,54	3102,80
1103,96	3102,20
1104,38	3115,00
1104,79	3088,62
1105,21	3103,25
1105,62	3099,30
1106,04	3096,30
1106,46	3101,05
1106,87	3089,80
1107,29	3095,95
1107,70	3108,28
1108,12	3094,10
1108,54	3104,50
1108,95	3105,08
1109,37	3103,88
1109,78	3092,70
1110,20	3098,95
1110,61	3092,42
1111,03	3092,42
1111,44	3092,42
1111,86	3092,42
1112,28	3092,42
1112,69	3092,42
1113,11	3092,42
1113,52	3092,42
1113,94	3092,42
1114,35	3092,42
1114,77	3092,42
1115,18	3092,42
1115,60	3092,42
1116,01	3092,42
1116,43	3092,42
1116,84	3092,42
1117,26	3092,42
1117,67	3092,42
1118,09	3092,42
1118,50	3092,42
1118,92	3092,42
>>>>>End Processed Spectral Data<<<<<
