SpectraSuite Data File
++++++++++++++++++++++++++++++++++++
Date: Tue Jul 12 15:56:29 EEST 2011
User: OO Maya
Dark Spectrum Present: No
Reference Spectrum Present: No
Number of Sampled Component Spectra: 1
Spectrometers: MAYP11278
Integration Time (usec): 36000 (MAYP11278)
Spectra Averaged: 40 (MAYP11278)
Boxcar Smoothing: 0 (MAYP11278)
Correct for Electrical Dark: No (MAYP11278)
Strobe/Lamp Enabled: No (MAYP11278)
Correct for Detector Non-linearity: No (MAYP11278)
Correct for Stray Light: No (MAYP11278)
Number of Pixels in Processed Spectrum: 2068
>>>>>Begin Processed Spectral Data<<<<<
200,00	3060,08
200,47	2999,38
200,95	2998,50
201,42	2996,22
201,89	3063,10
202,37	3067,22
202,84	3062,45
203,31	3062,75
203,79	3068,00
204,26	3063,40
204,73	3060,98
205,20	3062,30
205,68	3067,12
206,15	3066,72
206,62	3070,45
207,10	3066,58
207,57	3070,32
208,04	3064,15
208,51	3063,38
208,99	3075,75
209,46	3061,95
209,93	3063,42
210,41	3064,92
210,88	3060,48
211,35	3066,75
211,82	3071,35
212,30	3064,82
212,77	3067,68
213,24	3071,35
213,71	3069,02
214,19	3068,92
214,66	3063,02
215,13	3068,25
215,60	3062,30
216,08	3068,78
216,55	3072,38
217,02	3064,75
217,49	3063,35
217,96	3073,50
218,44	3066,35
218,91	3067,70
219,38	3079,32
219,85	3065,58
220,33	3068,98
220,80	3065,00
221,27	3070,40
221,74	3071,60
222,21	3067,48
222,69	3068,90
223,16	3069,10
223,63	3068,35
224,10	3063,92
224,57	3073,70
225,04	3068,28
225,52	3064,72
225,99	3076,28
226,46	3068,02
226,93	3073,82
227,40	3067,62
227,87	3068,55
228,35	3069,22
228,82	3069,25
229,29	3065,88
229,76	3065,78
230,23	3071,35
230,70	3060,25
231,18	3065,52
231,65	3064,72
232,12	3067,00
232,59	3072,32
233,06	3065,05
233,53	3071,50
234,00	3063,72
234,48	3070,68
234,95	3066,25
235,42	3068,78
235,89	3068,75
236,36	3065,80
236,83	3062,38
237,30	3068,40
237,77	3064,70
238,24	3068,25
238,72	3069,68
239,19	3067,02
239,66	3069,25
240,13	3070,02
240,60	3071,90
241,07	3066,60
241,54	3068,18
242,01	3066,72
242,48	3069,02
242,95	3074,35
243,42	3067,62
243,90	3067,82
244,37	3064,95
244,84	3068,88
245,31	3069,65
245,78	3082,85
246,25	3068,90
246,72	3064,72
247,19	3066,92
247,66	3065,35
248,13	3072,05
248,60	3078,50
249,07	3064,42
249,54	3071,35
250,01	3068,50
250,48	3068,38
250,95	3068,95
251,42	3062,98
251,89	3071,32
252,36	3072,92
252,83	3067,38
253,30	3067,90
253,77	3071,52
254,24	3072,68
254,71	3065,28
255,18	3064,98
255,65	3072,98
256,12	3072,70
256,59	3067,50
257,06	3074,52
257,53	3073,22
258,00	3064,58
258,47	3065,38
258,94	3068,60
259,41	3068,42
259,88	3068,75
260,35	3062,50
260,82	3067,35
261,29	3070,30
261,76	3069,10
262,23	3076,65
262,70	3068,28
263,17	3075,32
263,64	3074,12
264,11	3067,38
264,58	3073,42
265,05	3071,05
265,52	3066,28
265,99	3069,55
266,46	3071,12
266,93	3070,90
267,40	3068,58
267,87	3070,15
268,34	3069,30
268,81	3072,70
269,28	3080,65
269,74	3072,08
270,21	3065,40
270,68	3068,42
271,15	3069,72
271,62	3076,95
272,09	3066,05
272,56	3065,10
273,03	3073,80
273,50	3065,20
273,97	3072,90
274,44	3070,10
274,90	3064,28
275,37	3072,70
275,84	3073,28
276,31	3064,35
276,78	3070,18
277,25	3070,58
277,72	3072,52
278,19	3068,02
278,66	3066,48
279,12	3069,92
279,59	3069,80
280,06	3061,20
280,53	3063,42
281,00	3066,78
281,47	3072,88
281,94	3074,18
282,40	3067,58
282,87	3068,90
283,34	3063,40
283,81	3063,60
284,28	3058,78
284,75	3068,02
285,21	3085,02
285,68	3071,40
286,15	3071,98
286,62	3065,52
287,09	3065,48
287,56	3069,98
288,02	3072,85
288,49	3064,60
288,96	3067,05
289,43	3062,80
289,90	3085,90
290,36	3067,28
290,83	3064,72
291,30	3085,20
291,77	3071,72
292,24	3082,42
292,70	3065,30
293,17	3073,45
293,64	3067,92
294,11	3067,42
294,58	3072,12
295,04	3064,50
295,51	3064,40
295,98	3070,40
296,45	3066,95
296,91	3071,80
297,38	3072,10
297,85	3060,40
298,32	3071,62
298,79	3075,08
299,25	3067,98
299,72	3071,32
300,19	3063,42
300,66	3073,85
301,12	3064,75
301,59	3069,72
302,06	3066,90
302,52	3072,30
302,99	3077,32
303,46	3067,08
303,93	3075,58
304,39	3069,45
304,86	3072,95
305,33	3070,58
305,80	3063,58
306,26	3069,20
306,73	3069,42
307,20	3078,58
307,66	3073,98
308,13	3071,32
308,60	3071,30
309,07	3072,22
309,53	3066,02
310,00	3077,08
310,47	3069,35
310,93	3073,88
311,40	3067,15
311,87	3071,20
312,33	3074,60
312,80	3071,68
313,27	3064,92
313,73	3074,90
314,20	3070,52
314,67	3067,55
315,13	3067,55
315,60	3065,52
316,07	3068,22
316,53	3070,88
317,00	3069,38
317,47	3073,05
317,93	3064,32
318,40	3067,60
318,87	3068,02
319,33	3068,90
319,80	3070,75
320,26	3072,02
320,73	3071,38
321,20	3071,78
321,66	3069,22
322,13	3068,38
322,60	3073,25
323,06	3070,18
323,53	3078,60
323,99	3065,40
324,46	3068,25
324,93	3070,00
325,39	3065,10
325,86	3065,72
326,32	3073,65
326,79	3069,82
327,26	3071,55
327,72	3071,30
328,19	3069,60
328,65	3081,28
329,12	3070,48
329,59	3068,85
330,05	3062,80
330,52	3071,52
330,98	3076,95
331,45	3071,90
331,91	3067,90
332,38	3062,02
332,85	3063,95
333,31	3078,32
333,78	3065,68
334,24	3071,00
334,71	3063,55
335,17	3069,90
335,64	3069,30
336,10	3066,78
336,57	3067,60
337,03	3066,95
337,50	3071,45
337,96	3071,28
338,43	3071,85
338,90	3070,42
339,36	3068,40
339,83	3069,35
340,29	3067,65
340,76	3062,98
341,22	3072,45
341,69	3068,05
342,15	3078,65
342,62	3066,65
343,08	3079,48
343,55	3071,05
344,01	3070,22
344,48	3075,15
344,94	3070,25
345,41	3070,48
345,87	3086,95
346,34	3063,58
346,80	3068,12
347,27	3067,58
347,73	3070,65
348,19	3065,32
348,66	3067,28
349,12	3076,70
349,59	3072,10
350,05	3066,62
350,52	3065,70
350,98	3064,68
351,45	3069,32
351,91	3073,98
352,38	3066,90
352,84	3070,80
353,30	3072,20
353,77	3071,12
354,23	3067,62
354,70	3068,30
355,16	3065,00
355,63	3069,72
356,09	3070,70
356,55	3065,72
357,02	3069,10
357,48	3074,70
357,95	3065,55
358,41	3073,42
358,87	3068,05
359,34	3061,95
359,80	3069,30
360,27	3072,50
360,73	3068,78
361,19	3067,22
361,66	3069,40
362,12	3078,50
362,59	3070,50
363,05	3066,92
363,51	3068,08
363,98	3070,30
364,44	3070,18
364,91	3071,28
365,37	3069,92
365,83	3078,40
366,30	3068,58
366,76	3077,25
367,22	3062,68
367,69	3079,98
368,15	3071,50
368,61	3064,50
369,08	3066,60
369,54	3066,38
370,00	3068,02
370,47	3074,22
370,93	3072,78
371,39	3067,25
371,86	3067,90
372,32	3064,98
372,78	3068,20
373,25	3070,02
373,71	3078,92
374,17	3070,50
374,64	3065,95
375,10	3069,38
375,56	3065,85
376,03	3062,92
376,49	3069,45
376,95	3068,10
377,42	3068,70
377,88	3062,85
378,34	3064,28
378,80	3072,38
379,27	3063,40
379,73	3073,02
380,19	3069,35
380,66	3067,40
381,12	3067,68
381,58	3070,98
382,04	3065,10
382,51	3061,88
382,97	3069,92
383,43	3067,90
383,89	3063,88
384,36	3066,52
384,82	3070,92
385,28	3059,90
385,74	3075,68
386,21	3067,50
386,67	3065,98
387,13	3061,72
387,59	3068,72
388,06	3069,65
388,52	3069,52
388,98	3069,02
389,44	3067,60
389,91	3072,35
390,37	3074,70
390,83	3067,35
391,29	3073,98
391,75	3074,68
392,22	3061,60
392,68	3069,30
393,14	3067,78
393,60	3074,28
394,06	3069,28
394,53	3092,18
394,99	3068,45
395,45	3068,40
395,91	3067,18
396,37	3078,82
396,84	3064,45
397,30	3062,12
397,76	3072,22
398,22	3068,75
398,68	3072,88
399,14	3065,45
399,61	3070,18
400,07	3071,60
400,53	3069,30
400,99	3069,58
401,45	3069,22
401,91	3071,85
402,38	3066,12
402,84	3065,10
403,30	3081,10
403,76	3066,88
404,22	3072,65
404,68	3066,55
405,14	3070,80
405,61	3089,00
406,07	3064,22
406,53	3072,35
406,99	3074,82
407,45	3064,88
407,91	3068,05
408,37	3067,38
408,83	3064,30
409,29	3072,50
409,76	3063,02
410,22	3068,00
410,68	3067,45
411,14	3071,02
411,60	3068,00
412,06	3070,35
412,52	3065,28
412,98	3074,02
413,44	3069,05
413,90	3074,18
414,36	3079,15
414,83	3073,08
415,29	3063,92
415,75	3072,55
416,21	3069,35
416,67	3078,10
417,13	3068,92
417,59	3069,55
418,05	3071,08
418,51	3065,80
418,97	3073,65
419,43	3065,10
419,89	3074,75
420,35	3066,08
420,81	3072,12
421,27	3064,65
421,73	3063,88
422,19	3071,40
422,65	3066,02
423,11	3068,60
423,57	3071,58
424,03	3075,68
424,49	3068,40
424,96	3077,38
425,42	3071,58
425,88	3070,90
426,34	3077,38
426,80	3069,18
427,26	3069,12
427,72	3071,60
428,18	3067,48
428,64	3072,92
429,10	3066,20
429,56	3072,75
430,02	3065,20
430,47	3069,18
430,93	3065,28
431,39	3071,80
431,85	3066,68
432,31	3068,95
432,77	3068,68
433,23	3072,88
433,69	3068,80
434,15	3072,15
434,61	3068,65
435,07	3076,68
435,53	3064,72
435,99	3076,22
436,45	3073,58
436,91	3072,82
437,37	3065,35
437,83	3072,72
438,29	3070,12
438,75	3070,55
439,21	3070,15
439,67	3083,40
440,12	3064,55
440,58	3065,05
441,04	3075,78
441,50	3075,90
441,96	3067,08
442,42	3065,80
442,88	3071,35
443,34	3066,65
443,80	3070,75
444,26	3063,78
444,72	3071,10
445,17	3069,25
445,63	3061,25
446,09	3072,02
446,55	3071,35
447,01	3068,55
447,47	3067,75
447,93	3068,85
448,39	3086,28
448,85	3069,35
449,30	3072,58
449,76	3072,05
450,22	3065,88
450,68	3066,58
451,14	3079,82
451,60	3063,48
452,06	3068,25
452,51	3067,85
452,97	3062,38
453,43	3077,10
453,89	3071,62
454,35	3068,65
454,81	3068,80
455,26	3068,90
455,72	3066,88
456,18	3068,45
456,64	3066,72
457,10	3064,35
457,56	3070,20
458,01	3070,85
458,47	3066,42
458,93	3065,68
459,39	3064,28
459,85	3065,00
460,30	3070,92
460,76	3072,22
461,22	3064,02
461,68	3072,95
462,14	3069,78
462,59	3067,68
463,05	3067,28
463,51	3070,42
463,97	3067,82
464,43	3070,30
464,88	3072,48
465,34	3066,68
465,80	3076,15
466,26	3068,92
466,71	3067,98
467,17	3063,12
467,63	3068,72
468,09	3067,45
468,54	3069,25
469,00	3068,80
469,46	3064,55
469,92	3074,75
470,37	3069,68
470,83	3063,60
471,29	3065,75
471,75	3074,35
472,20	3068,08
472,66	3068,88
473,12	3070,35
473,58	3064,95
474,03	3065,25
474,49	3071,92
474,95	3066,60
475,40	3072,52
475,86	3071,25
476,32	3066,55
476,78	3069,70
477,23	3069,45
477,69	3069,10
478,15	3065,82
478,60	3070,80
479,06	3068,68
479,52	3068,22
479,97	3069,12
480,43	3065,78
480,89	3066,50
481,34	3067,80
481,80	3075,52
482,26	3068,45
482,71	3067,70
483,17	3068,08
483,63	3064,35
484,08	3071,32
484,54	3067,22
485,00	3072,50
485,45	3066,70
485,91	3070,70
486,37	3075,55
486,82	3070,18
487,28	3074,98
487,74	3063,45
488,19	3077,70
488,65	3071,72
489,10	3066,90
489,56	3066,08
490,02	3067,55
490,47	3070,40
490,93	3066,05
491,39	3069,28
491,84	3063,50
492,30	3068,80
492,75	3074,42
493,21	3070,32
493,67	3069,30
494,12	3061,65
494,58	3068,25
495,03	3064,02
495,49	3072,68
495,95	3061,88
496,40	3063,55
496,86	3066,58
497,31	3071,28
497,77	3068,98
498,23	3072,25
498,68	3065,05
499,14	3068,35
499,59	3063,88
500,05	3064,78
500,50	3062,58
500,96	3074,25
501,41	3071,35
501,87	3070,10
502,33	3066,38
502,78	3066,72
503,24	3067,22
503,69	3066,55
504,15	3070,48
504,60	3067,45
505,06	3068,15
505,51	3078,18
505,97	3075,35
506,42	3068,22
506,88	3070,80
507,33	3066,85
507,79	3080,25
508,24	3069,48
508,70	3067,18
509,15	3069,42
509,61	3067,32
510,06	3073,60
510,52	3070,22
510,97	3068,42
511,43	3068,20
511,88	3072,85
512,34	3067,95
512,79	3070,60
513,25	3069,12
513,70	3065,18
514,16	3067,60
514,61	3072,72
515,07	3069,78
515,52	3072,20
515,98	3068,80
516,43	3068,60
516,89	3066,05
517,34	3063,52
517,80	3067,70
518,25	3066,75
518,70	3067,30
519,16	3076,70
519,61	3075,32
520,07	3064,88
520,52	3063,22
520,98	3064,98
521,43	3071,25
521,89	3060,22
522,34	3074,42
522,79	3074,90
523,25	3064,72
523,70	3070,70
524,16	3074,18
524,61	3072,12
525,06	3081,28
525,52	3072,70
525,97	3069,22
526,43	3088,55
526,88	3069,00
527,33	3066,75
527,79	3063,80
528,24	3065,72
528,70	3070,02
529,15	3071,92
529,60	3070,82
530,06	3070,78
530,51	3064,42
530,97	3079,08
531,42	3072,18
531,87	3070,12
532,33	3076,18
532,78	3071,70
533,23	3072,52
533,69	3075,50
534,14	3073,35
534,59	3069,45
535,05	3071,02
535,50	3067,98
535,96	3072,18
536,41	3070,50
536,86	3068,90
537,32	3063,95
537,77	3071,92
538,22	3071,35
538,68	3066,72
539,13	3077,50
539,58	3069,58
540,03	3070,55
540,49	3069,92
540,94	3071,08
541,39	3067,62
541,85	3064,35
542,30	3069,70
542,75	3067,58
543,21	3070,40
543,66	3066,82
544,11	3074,70
544,57	3065,20
545,02	3073,65
545,47	3066,78
545,92	3068,80
546,38	3075,80
546,83	3071,10
547,28	3092,20
547,73	3063,38
548,19	3074,82
548,64	3067,50
549,09	3064,35
549,55	3070,88
550,00	3070,02
550,45	3066,42
550,90	3080,78
551,36	3064,38
551,81	3079,62
552,26	3074,88
552,71	3069,25
553,17	3068,05
553,62	3073,72
554,07	3068,48
554,52	3071,28
554,97	3070,80
555,43	3068,30
555,88	3069,52
556,33	3066,95
556,78	3067,20
557,24	3079,80
557,69	3067,35
558,14	3065,48
558,59	3070,55
559,04	3070,22
559,50	3076,92
559,95	3069,98
560,40	3065,38
560,85	3072,00
561,30	3068,05
561,76	3064,08
562,21	3069,42
562,66	3069,08
563,11	3077,20
563,56	3069,02
564,01	3076,35
564,47	3063,60
564,92	3070,72
565,37	3078,90
565,82	3069,80
566,27	3067,00
566,72	3066,00
567,18	3065,78
567,63	3063,92
568,08	3068,58
568,53	3067,28
568,98	3068,22
569,43	3065,40
569,88	3067,62
570,34	3070,38
570,79	3073,35
571,24	3065,88
571,69	3070,82
572,14	3069,02
572,59	3066,20
573,04	3070,20
573,49	3074,40
573,94	3066,32
574,40	3067,80
574,85	3066,65
575,30	3072,62
575,75	3067,45
576,20	3068,30
576,65	3073,30
577,10	3067,28
577,55	3068,18
578,00	3072,98
578,45	3071,55
578,91	3070,32
579,36	3070,48
579,81	3070,90
580,26	3068,05
580,71	3066,32
581,16	3070,35
581,61	3075,88
582,06	3072,55
582,51	3063,20
582,96	3071,85
583,41	3061,08
583,86	3073,65
584,31	3067,62
584,76	3067,42
585,21	3063,80
585,66	3073,88
586,11	3069,38
586,56	3064,58
587,01	3069,32
587,46	3071,35
587,92	3067,42
588,37	3068,05
588,82	3067,55
589,27	3066,45
589,72	3064,90
590,17	3068,32
590,62	3069,88
591,07	3067,65
591,52	3070,40
591,97	3064,18
592,42	3079,58
592,87	3069,00
593,32	3066,95
593,77	3065,32
594,22	3067,98
594,67	3072,90
595,12	3065,88
595,56	3070,72
596,01	3067,38
596,46	3065,42
596,91	3071,12
597,36	3070,25
597,81	3065,65
598,26	3063,20
598,71	3074,78
599,16	3065,52
599,61	3068,02
600,06	3066,25
600,51	3072,60
600,96	3068,12
601,41	3067,22
601,86	3073,65
602,31	3067,88
602,76	3066,10
603,21	3074,88
603,66	3072,00
604,11	3073,55
604,55	3070,88
605,00	3061,90
605,45	3067,58
605,90	3073,52
606,35	3065,72
606,80	3070,28
607,25	3075,40
607,70	3069,62
608,15	3071,65
608,60	3062,88
609,04	3083,45
609,49	3066,88
609,94	3068,22
610,39	3062,42
610,84	3061,60
611,29	3068,58
611,74	3064,50
612,19	3073,28
612,64	3068,38
613,08	3060,50
613,53	3068,48
613,98	3067,18
614,43	3068,32
614,88	3070,75
615,33	3068,02
615,78	3079,65
616,22	3071,55
616,67	3068,75
617,12	3068,00
617,57	3069,22
618,02	3062,78
618,47	3076,60
618,91	3069,72
619,36	3069,22
619,81	3081,60
620,26	3065,18
620,71	3064,32
621,16	3063,72
621,60	3063,20
622,05	3064,38
622,50	3066,30
622,95	3065,28
623,40	3064,68
623,84	3067,15
624,29	3072,40
624,74	3065,78
625,19	3066,92
625,64	3069,40
626,08	3073,32
626,53	3066,42
626,98	3071,75
627,43	3075,18
627,87	3066,22
628,32	3072,48
628,77	3075,85
629,22	3071,10
629,66	3065,32
630,11	3063,72
630,56	3072,60
631,01	3063,20
631,46	3067,02
631,90	3070,12
632,35	3065,88
632,80	3067,48
633,25	3068,02
633,69	3065,50
634,14	3072,70
634,59	3071,42
635,03	3062,95
635,48	3066,82
635,93	3069,82
636,38	3065,68
636,82	3069,88
637,27	3066,45
637,72	3071,15
638,16	3069,58
638,61	3073,42
639,06	3065,15
639,51	3066,18
639,95	3065,22
640,40	3064,52
640,85	3063,60
641,29	3066,85
641,74	3065,60
642,19	3065,05
642,63	3067,18
643,08	3065,60
643,53	3066,45
643,97	3073,38
644,42	3071,00
644,87	3064,78
645,31	3068,18
645,76	3064,32
646,21	3061,95
646,65	3069,15
647,10	3073,48
647,55	3064,28
647,99	3064,75
648,44	3065,68
648,89	3063,30
649,33	3063,48
649,78	3073,00
650,23	3064,40
650,67	3063,90
651,12	3065,78
651,56	3064,38
652,01	3066,90
652,46	3069,00
652,90	3068,52
653,35	3069,30
653,80	3068,62
654,24	3070,42
654,69	3064,10
655,13	3072,85
655,58	3070,00
656,03	3088,10
656,47	3064,22
656,92	3064,12
657,36	3063,12
657,81	3070,10
658,26	3061,90
658,70	3065,42
659,15	3065,08
659,59	3064,58
660,04	3068,45
660,48	3067,70
660,93	3064,90
661,38	3063,62
661,82	3070,90
662,27	3064,42
662,71	3066,30
663,16	3070,82
663,60	3069,92
664,05	3063,02
664,49	3068,58
664,94	3066,08
665,38	3089,42
665,83	3064,75
666,28	3072,62
666,72	3065,50
667,17	3062,55
667,61	3066,35
668,06	3062,25
668,50	3062,62
668,95	3071,38
669,39	3064,22
669,84	3065,38
670,28	3066,35
670,73	3063,98
671,17	3068,20
671,62	3062,72
672,06	3068,75
672,51	3066,45
672,95	3079,78
673,40	3073,60
673,84	3064,02
674,29	3068,48
674,73	3063,70
675,18	3076,92
675,62	3060,28
676,07	3061,02
676,51	3073,88
676,95	3065,75
677,40	3075,55
677,84	3078,95
678,29	3068,85
678,73	3066,68
679,18	3071,20
679,62	3083,80
680,07	3067,75
680,51	3068,65
680,96	3062,18
681,40	3061,02
681,84	3065,95
682,29	3066,10
682,73	3068,78
683,18	3067,85
683,62	3081,00
684,07	3064,52
684,51	3065,48
684,95	3071,62
685,40	3064,50
685,84	3067,10
686,29	3066,10
686,73	3060,52
687,17	3059,85
687,62	3065,72
688,06	3066,78
688,51	3071,72
688,95	3071,60
689,39	3069,10
689,84	3074,22
690,28	3070,08
690,73	3069,45
691,17	3069,42
691,61	3065,70
692,06	3065,65
692,50	3068,18
692,94	3066,62
693,39	3067,92
693,83	3065,95
694,27	3081,75
694,72	3070,90
695,16	3061,32
695,60	3066,02
696,05	3065,90
696,49	3061,52
696,94	3068,10
697,38	3060,02
697,82	3068,42
698,27	3062,45
698,71	3070,92
699,15	3069,68
699,59	3068,52
700,04	3066,50
700,48	3088,90
700,92	3068,80
701,37	3067,92
701,81	3076,45
702,25	3066,90
702,70	3064,15
703,14	3069,30
703,58	3064,22
704,03	3072,90
704,47	3072,08
704,91	3064,45
705,35	3065,90
705,80	3070,35
706,24	3071,65
706,68	3086,05
707,13	3063,55
707,57	3073,72
708,01	3064,80
708,45	3065,10
708,90	3069,92
709,34	3067,65
709,78	3065,00
710,22	3073,70
710,67	3072,20
711,11	3072,40
711,55	3063,95
711,99	3070,60
712,44	3066,90
712,88	3066,62
713,32	3068,85
713,76	3069,72
714,21	3068,70
714,65	3064,12
715,09	3066,65
715,53	3067,52
715,97	3063,50
716,42	3069,00
716,86	3067,88
717,30	3066,82
717,74	3063,52
718,18	3076,45
718,63	3067,22
719,07	3069,45
719,51	3074,78
719,95	3069,72
720,39	3067,82
720,84	3067,62
721,28	3065,52
721,72	3067,18
722,16	3062,08
722,60	3061,18
723,04	3070,30
723,49	3074,80
723,93	3061,75
724,37	3063,15
724,81	3067,88
725,25	3068,92
725,69	3063,55
726,14	3067,20
726,58	3066,58
727,02	3067,92
727,46	3065,98
727,90	3063,50
728,34	3062,18
728,78	3068,05
729,23	3061,30
729,67	3069,05
730,11	3062,42
730,55	3067,35
730,99	3066,70
731,43	3069,12
731,87	3076,35
732,31	3064,38
732,76	3073,35
733,20	3071,15
733,64	3066,20
734,08	3072,28
734,52	3065,10
734,96	3073,18
735,40	3061,60
735,84	3067,12
736,28	3069,78
736,72	3067,25
737,16	3067,82
737,61	3063,70
738,05	3071,02
738,49	3069,25
738,93	3064,45
739,37	3070,92
739,81	3069,92
740,25	3068,05
740,69	3080,88
741,13	3064,38
741,57	3070,45
742,01	3072,80
742,45	3069,55
742,89	3065,02
743,33	3065,32
743,77	3067,50
744,21	3061,25
744,65	3072,42
745,09	3068,32
745,53	3065,12
745,98	3069,38
746,42	3070,02
746,86	3066,20
747,30	3066,42
747,74	3065,75
748,18	3063,15
748,62	3067,12
749,06	3074,30
749,50	3071,22
749,94	3067,68
750,38	3072,72
750,82	3074,40
751,26	3058,58
751,70	3063,60
752,14	3062,22
752,58	3069,65
753,02	3066,45
753,45	3065,10
753,89	3069,85
754,33	3080,92
754,77	3068,15
755,21	3065,20
755,65	3061,02
756,09	3065,00
756,53	3063,50
756,97	3065,35
757,41	3074,72
757,85	3062,45
758,29	3065,85
758,73	3062,75
759,17	3065,70
759,61	3063,00
760,05	3066,55
760,49	3069,10
760,93	3073,65
761,37	3067,12
761,80	3072,05
762,24	3066,55
762,68	3067,18
763,12	3066,45
763,56	3066,45
764,00	3061,28
764,44	3066,65
764,88	3069,70
765,32	3064,55
765,76	3069,05
766,20	3072,98
766,63	3067,30
767,07	3062,20
767,51	3064,08
767,95	3070,70
768,39	3067,88
768,83	3062,42
769,27	3066,65
769,71	3069,95
770,14	3064,42
770,58	3063,12
771,02	3063,00
771,46	3065,28
771,90	3067,28
772,34	3069,30
772,78	3071,18
773,21	3064,82
773,65	3077,02
774,09	3063,92
774,53	3068,70
774,97	3063,72
775,41	3063,12
775,84	3069,50
776,28	3067,70
776,72	3067,32
777,16	3063,42
777,60	3066,00
778,04	3065,60
778,47	3058,40
778,91	3066,40
779,35	3062,38
779,79	3068,40
780,23	3066,42
780,66	3061,80
781,10	3066,18
781,54	3064,65
781,98	3069,22
782,42	3070,52
782,85	3066,30
783,29	3068,65
783,73	3082,62
784,17	3073,32
784,61	3065,35
785,04	3072,60
785,48	3068,05
785,92	3064,80
786,36	3069,62
786,79	3063,12
787,23	3064,88
787,67	3069,65
788,11	3071,30
788,54	3069,62
788,98	3064,62
789,42	3066,32
789,86	3061,20
790,29	3070,75
790,73	3070,80
791,17	3073,40
791,60	3064,15
792,04	3065,82
792,48	3067,68
792,92	3064,10
793,35	3065,30
793,79	3064,80
794,23	3067,28
794,67	3061,65
795,10	3065,85
795,54	3070,75
795,98	3064,58
796,41	3066,10
796,85	3064,22
797,29	3086,45
797,72	3072,80
798,16	3067,80
798,60	3067,58
799,03	3068,00
799,47	3062,68
799,91	3070,65
800,34	3066,45
800,78	3068,28
801,22	3064,55
801,65	3060,02
802,09	3067,50
802,53	3071,95
802,96	3067,55
803,40	3062,50
803,84	3075,28
804,27	3067,45
804,71	3063,32
805,15	3066,48
805,58	3067,90
806,02	3064,18
806,46	3071,28
806,89	3074,48
807,33	3068,30
807,76	3069,98
808,20	3066,52
808,64	3066,08
809,07	3074,48
809,51	3077,62
809,95	3075,02
810,38	3071,20
810,82	3078,85
811,25	3066,65
811,69	3066,60
812,13	3063,42
812,56	3068,72
813,00	3066,10
813,43	3062,92
813,87	3062,95
814,30	3068,25
814,74	3071,55
815,18	3084,75
815,61	3064,22
816,05	3063,00
816,48	3070,78
816,92	3076,38
817,35	3072,35
817,79	3066,18
818,23	3071,32
818,66	3069,30
819,10	3068,95
819,53	3066,32
819,97	3064,80
820,40	3064,70
820,84	3069,35
821,27	3067,08
821,71	3071,70
822,14	3066,05
822,58	3069,45
823,01	3072,82
823,45	3066,88
823,88	3070,22
824,32	3064,58
824,75	3067,32
825,19	3065,48
825,63	3072,92
826,06	3062,88
826,50	3068,02
826,93	3065,98
827,37	3063,92
827,80	3069,58
828,23	3067,58
828,67	3069,10
829,10	3068,58
829,54	3065,15
829,97	3064,60
830,41	3056,82
830,84	3067,32
831,28	3070,85
831,71	3071,92
832,15	3064,80
832,58	3071,12
833,02	3069,05
833,45	3064,58
833,89	3076,15
834,32	3064,05
834,75	3080,30
835,19	3070,75
835,62	3069,58
836,06	3061,32
836,49	3066,28
836,93	3066,95
837,36	3073,30
837,79	3070,22
838,23	3066,35
838,66	3066,55
839,10	3072,40
839,53	3064,40
839,97	3068,25
840,40	3065,48
840,83	3071,02
841,27	3062,90
841,70	3066,90
842,14	3068,80
842,57	3067,02
843,00	3073,82
843,44	3078,18
843,87	3068,30
844,31	3071,65
844,74	3058,52
845,17	3063,90
845,61	3062,75
846,04	3065,55
846,47	3071,25
846,91	3065,75
847,34	3071,85
847,77	3066,40
848,21	3065,22
848,64	3069,85
849,08	3064,78
849,51	3073,85
849,94	3064,08
850,38	3064,55
850,81	3066,15
851,24	3065,30
851,68	3064,28
852,11	3066,28
852,54	3068,68
852,98	3070,62
853,41	3071,40
853,84	3065,35
854,28	3073,90
854,71	3063,78
855,14	3070,38
855,57	3073,22
856,01	3063,98
856,44	3063,15
856,87	3069,58
857,31	3062,78
857,74	3071,48
858,17	3063,35
858,61	3065,55
859,04	3072,65
859,47	3073,10
859,90	3064,55
860,34	3070,88
860,77	3066,70
861,20	3063,95
861,63	3073,32
862,07	3059,12
862,50	3062,80
862,93	3066,28
863,37	3068,32
863,80	3068,60
864,23	3071,50
864,66	3065,00
865,10	3068,45
865,53	3069,95
865,96	3065,20
866,39	3066,10
866,82	3070,02
867,26	3063,15
867,69	3066,32
868,12	3065,35
868,55	3059,35
868,99	3066,22
869,42	3062,02
869,85	3069,55
870,28	3062,40
870,71	3069,30
871,15	3067,38
871,58	3065,75
872,01	3070,20
872,44	3066,52
872,87	3075,32
873,31	3079,62
873,74	3065,25
874,17	3066,25
874,60	3069,78
875,03	3063,98
875,47	3069,72
875,90	3071,05
876,33	3065,85
876,76	3071,65
877,19	3069,20
877,62	3065,90
878,06	3063,55
878,49	3071,42
878,92	3059,25
879,35	3068,05
879,78	3066,90
880,21	3066,98
880,64	3064,78
881,08	3065,58
881,51	3068,48
881,94	3065,68
882,37	3075,48
882,80	3062,90
883,23	3061,90
883,66	3066,00
884,09	3067,28
884,53	3069,90
884,96	3067,12
885,39	3067,75
885,82	3067,15
886,25	3066,32
886,68	3061,58
887,11	3070,15
887,54	3065,15
887,97	3070,85
888,40	3071,10
888,84	3065,18
889,27	3063,10
889,70	3075,18
890,13	3060,85
890,56	3062,52
890,99	3066,95
891,42	3065,15
891,85	3084,40
892,28	3063,15
892,71	3070,98
893,14	3065,70
893,57	3070,20
894,00	3068,55
894,43	3063,82
894,86	3064,92
895,29	3065,80
895,73	3062,18
896,16	3064,85
896,59	3068,35
897,02	3064,10
897,45	3069,25
897,88	3066,88
898,31	3062,95
898,74	3066,72
899,17	3070,60
899,60	3063,60
900,03	3062,55
900,46	3063,90
900,89	3068,40
901,32	3071,40
901,75	3064,78
902,18	3062,72
902,61	3065,22
903,04	3069,65
903,47	3072,32
903,90	3065,28
904,33	3076,25
904,76	3078,15
905,19	3064,35
905,62	3066,08
906,05	3075,60
906,48	3063,10
906,91	3068,78
907,34	3064,05
907,76	3068,00
908,19	3063,12
908,62	3073,58
909,05	3068,25
909,48	3073,70
909,91	3068,85
910,34	3066,35
910,77	3069,65
911,20	3074,30
911,63	3067,70
912,06	3059,82
912,49	3067,90
912,92	3066,12
913,35	3065,75
913,78	3062,95
914,21	3067,00
914,63	3067,45
915,06	3066,05
915,49	3068,05
915,92	3070,05
916,35	3065,65
916,78	3062,18
917,21	3062,98
917,64	3063,08
918,07	3063,65
918,50	3070,12
918,92	3064,52
919,35	3071,25
919,78	3064,52
920,21	3070,68
920,64	3064,32
921,07	3066,90
921,50	3065,82
921,93	3069,15
922,35	3071,50
922,78	3067,25
923,21	3074,35
923,64	3067,30
924,07	3063,88
924,50	3062,65
924,92	3062,48
925,35	3066,92
925,78	3075,75
926,21	3069,50
926,64	3063,40
927,07	3068,95
927,49	3063,42
927,92	3068,68
928,35	3077,02
928,78	3065,62
929,21	3068,65
929,64	3060,90
930,06	3077,98
930,49	3065,42
930,92	3060,95
931,35	3070,90
931,78	3064,98
932,20	3067,15
932,63	3069,58
933,06	3064,80
933,49	3070,60
933,92	3061,58
934,34	3077,55
934,77	3071,30
935,20	3081,08
935,63	3063,80
936,05	3071,50
936,48	3071,80
936,91	3069,88
937,34	3069,88
937,76	3060,90
938,19	3066,88
938,62	3064,22
939,05	3067,75
939,47	3062,25
939,90	3069,40
940,33	3066,18
940,76	3066,12
941,18	3069,88
941,61	3063,92
942,04	3067,90
942,47	3072,22
942,89	3077,70
943,32	3063,75
943,75	3071,72
944,17	3061,98
944,60	3064,65
945,03	3069,90
945,46	3062,75
945,88	3063,60
946,31	3068,68
946,74	3064,00
947,16	3067,75
947,59	3068,62
948,02	3068,80
948,44	3069,32
948,87	3073,30
949,30	3065,05
949,72	3065,28
950,15	3067,85
950,58	3061,15
951,00	3061,32
951,43	3062,55
951,86	3081,62
952,28	3072,32
952,71	3065,85
953,14	3066,38
953,56	3070,70
953,99	3062,00
954,42	3071,95
954,84	3066,35
955,27	3075,28
955,70	3061,80
956,12	3064,45
956,55	3066,88
956,98	3064,75
957,40	3066,12
957,83	3069,55
958,25	3063,25
958,68	3068,62
959,11	3084,12
959,53	3062,10
959,96	3069,42
960,38	3069,38
960,81	3064,02
961,24	3063,28
961,66	3064,50
962,09	3058,90
962,51	3066,08
962,94	3070,15
963,37	3068,18
963,79	3072,12
964,22	3071,65
964,64	3063,60
965,07	3067,82
965,49	3063,78
965,92	3067,85
966,35	3065,72
966,77	3065,68
967,20	3072,50
967,62	3067,62
968,05	3064,85
968,47	3070,02
968,90	3064,35
969,32	3063,48
969,75	3071,22
970,17	3087,48
970,60	3069,72
971,03	3066,65
971,45	3069,68
971,88	3062,28
972,30	3064,95
972,73	3068,22
973,15	3065,45
973,58	3065,78
974,00	3062,68
974,43	3063,80
974,85	3064,70
975,28	3069,22
975,70	3065,42
976,13	3067,70
976,55	3068,72
976,98	3062,02
977,40	3064,90
977,83	3062,48
978,25	3069,05
978,68	3063,78
979,10	3070,12
979,53	3066,55
979,95	3067,58
980,37	3063,85
980,80	3064,38
981,22	3071,82
981,65	3070,82
982,07	3065,62
982,50	3068,70
982,92	3069,45
983,35	3064,48
983,77	3067,58
984,20	3064,35
984,62	3064,68
985,04	3063,48
985,47	3070,90
985,89	3069,32
986,32	3063,58
986,74	3059,50
987,17	3064,20
987,59	3069,28
988,01	3067,45
988,44	3062,88
988,86	3067,28
989,29	3064,85
989,71	3066,00
990,13	3066,15
990,56	3066,95
990,98	3066,70
991,41	3064,45
991,83	3068,08
992,25	3067,52
992,68	3068,42
993,10	3072,60
993,53	3063,65
993,95	3062,05
994,37	3065,10
994,80	3064,68
995,22	3065,45
995,64	3067,95
996,07	3069,40
996,49	3067,45
996,91	3068,62
997,34	3061,65
997,76	3062,92
998,18	3060,12
998,61	3072,05
999,03	3070,12
999,45	3066,50
999,88	3067,10
1000,30	3063,08
1000,72	3074,35
1001,15	3066,65
1001,57	3068,00
1001,99	3072,95
1002,42	3063,90
1002,84	3064,52
1003,26	3067,62
1003,69	3066,22
1004,11	3067,25
1004,53	3066,88
1004,96	3070,00
1005,38	3062,00
1005,80	3065,30
1006,22	3069,10
1006,65	3074,12
1007,07	3068,85
1007,49	3060,85
1007,92	3069,65
1008,34	3066,22
1008,76	3062,52
1009,18	3061,75
1009,61	3069,00
1010,03	3065,48
1010,45	3082,50
1010,87	3071,05
1011,30	3070,20
1011,72	3068,85
1012,14	3068,78
1012,56	3069,80
1012,99	3066,22
1013,41	3070,18
1013,83	3068,68
1014,25	3067,60
1014,68	3068,78
1015,10	3064,55
1015,52	3074,42
1015,94	3062,15
1016,37	3071,20
1016,79	3063,08
1017,21	3068,25
1017,63	3063,25
1018,05	3066,98
1018,48	3066,52
1018,90	3065,52
1019,32	3066,45
1019,74	3059,42
1020,16	3081,30
1020,59	3073,08
1021,01	3069,48
1021,43	3066,62
1021,85	3067,08
1022,27	3067,25
1022,69	3069,28
1023,12	3071,78
1023,54	3068,70
1023,96	3084,75
1024,38	3072,80
1024,80	3070,50
1025,22	3069,78
1025,65	3068,98
1026,07	3069,10
1026,49	3070,28
1026,91	3065,35
1027,33	3062,50
1027,75	3079,05
1028,17	3069,75
1028,60	3067,28
1029,02	3065,20
1029,44	3070,12
1029,86	3065,70
1030,28	3077,05
1030,70	3069,10
1031,12	3065,38
1031,54	3069,20
1031,97	3074,90
1032,39	3063,92
1032,81	3068,10
1033,23	3070,85
1033,65	3066,10
1034,07	3070,25
1034,49	3063,20
1034,91	3062,60
1035,33	3070,28
1035,75	3072,22
1036,18	3064,85
1036,60	3075,42
1037,02	3064,05
1037,44	3065,98
1037,86	3068,65
1038,28	3061,32
1038,70	3071,45
1039,12	3071,62
1039,54	3070,58
1039,96	3073,70
1040,38	3073,70
1040,80	3065,30
1041,22	3066,80
1041,64	3070,70
1042,06	3065,25
1042,48	3073,02
1042,90	3073,40
1043,32	3068,80
1043,74	3072,22
1044,17	3070,38
1044,59	3071,68
1045,01	3063,20
1045,43	3066,15
1045,85	3065,32
1046,27	3062,35
1046,69	3068,48
1047,11	3068,78
1047,53	3063,32
1047,95	3066,68
1048,37	3070,78
1048,79	3064,45
1049,21	3073,22
1049,63	3068,40
1050,05	3071,25
1050,47	3064,28
1050,89	3065,95
1051,31	3071,02
1051,72	3071,10
1052,14	3073,58
1052,56	3076,18
1052,98	3067,60
1053,40	3072,80
1053,82	3059,02
1054,24	3068,78
1054,66	3060,42
1055,08	3065,75
1055,50	3064,05
1055,92	3068,98
1056,34	3069,70
1056,76	3076,98
1057,18	3069,90
1057,60	3071,22
1058,02	3064,70
1058,44	3086,55
1058,86	3063,62
1059,28	3070,90
1059,69	3069,18
1060,11	3069,68
1060,53	3068,80
1060,95	3064,02
1061,37	3072,80
1061,79	3070,28
1062,21	3065,60
1062,63	3071,58
1063,05	3075,82
1063,47	3069,80
1063,88	3066,12
1064,30	3064,92
1064,72	3072,88
1065,14	3072,48
1065,56	3066,98
1065,98	3063,75
1066,40	3060,90
1066,82	3072,48
1067,23	3067,08
1067,65	3068,90
1068,07	3069,22
1068,49	3065,50
1068,91	3075,62
1069,33	3069,12
1069,75	3064,40
1070,16	3062,22
1070,58	3071,88
1071,00	3070,85
1071,42	3073,65
1071,84	3065,70
1072,26	3071,88
1072,67	3064,68
1073,09	3062,22
1073,51	3063,52
1073,93	3070,62
1074,35	3064,28
1074,77	3062,30
1075,18	3066,00
1075,60	3065,72
1076,02	3068,58
1076,44	3065,12
1076,86	3061,12
1077,27	3068,62
1077,69	3071,48
1078,11	3064,00
1078,53	3071,40
1078,94	3077,05
1079,36	3059,75
1079,78	3069,12
1080,20	3065,10
1080,62	3067,48
1081,03	3069,02
1081,45	3065,70
1081,87	3066,35
1082,29	3065,92
1082,70	3067,55
1083,12	3067,58
1083,54	3067,02
1083,96	3067,38
1084,37	3071,78
1084,79	3067,95
1085,21	3065,78
1085,63	3073,05
1086,04	3063,38
1086,46	3066,40
1086,88	3068,55
1087,30	3060,88
1087,71	3071,62
1088,13	3314,42
1088,55	3064,90
1088,96	3064,82
1089,38	3066,40
1089,80	3066,70
1090,22	3073,78
1090,63	3066,55
1091,05	3063,48
1091,47	3069,25
1091,88	3064,72
1092,30	3064,98
1092,72	3067,25
1093,13	3063,92
1093,55	3066,60
1093,97	3067,02
1094,38	3066,62
1094,80	3065,58
1095,22	3066,60
1095,63	3064,58
1096,05	3067,92
1096,47	3069,20
1096,88	3063,15
1097,30	3067,78
1097,72	3063,42
1098,13	3072,25
1098,55	3069,70
1098,97	3072,45
1099,38	3066,32
1099,80	3064,50
1100,21	3062,92
1100,63	3065,45
1101,05	3065,35
1101,46	3066,50
1101,88	3063,88
1102,30	3065,02
1102,71	3067,50
1103,13	3066,50
1103,54	3067,10
1103,96	3064,30
1104,38	3074,42
1104,79	3060,92
1105,21	3068,18
1105,62	3065,05
1106,04	3063,82
1106,46	3065,85
1106,87	3057,72
1107,29	3061,52
1107,70	3071,08
1108,12	3060,10
1108,54	3066,75
1108,95	3070,75
1109,37	3067,70
1109,78	3060,32
1110,20	3062,75
1110,61	3060,48
1111,03	3060,48
1111,44	3060,48
1111,86	3060,48
1112,28	3060,48
1112,69	3060,48
1113,11	3060,48
1113,52	3060,48
1113,94	3060,48
1114,35	3060,48
1114,77	3060,48
1115,18	3060,48
1115,60	3060,48
1116,01	3060,48
1116,43	3060,48
1116,84	3060,48
1117,26	3060,48
1117,67	3060,48
1118,09	3060,48
1118,50	3060,48
1118,92	3060,48
>>>>>End Processed Spectral Data<<<<<
