SpectraSuite Data File
++++++++++++++++++++++++++++++++++++
Date: Tue Jul 12 15:55:56 EEST 2011
User: OO Maya
Dark Spectrum Present: No
Reference Spectrum Present: No
Number of Sampled Component Spectra: 1
Spectrometers: MAYP11278
Integration Time (usec): 36000 (MAYP11278)
Spectra Averaged: 40 (MAYP11278)
Boxcar Smoothing: 0 (MAYP11278)
Correct for Electrical Dark: No (MAYP11278)
Strobe/Lamp Enabled: No (MAYP11278)
Correct for Detector Non-linearity: No (MAYP11278)
Correct for Stray Light: No (MAYP11278)
Number of Pixels in Processed Spectrum: 2068
>>>>>Begin Processed Spectral Data<<<<<
200,00	3063,92
200,47	3002,20
200,95	3000,30
201,42	2999,20
201,89	3067,25
202,37	3070,25
202,84	3073,18
203,31	3076,50
203,79	3083,08
204,26	3075,40
204,73	3077,05
205,20	3075,68
205,68	3079,70
206,15	3078,70
206,62	3085,12
207,10	3079,95
207,57	3083,95
208,04	3079,20
208,51	3079,02
208,99	3091,00
209,46	3080,98
209,93	3075,02
210,41	3078,18
210,88	3075,58
211,35	3080,38
211,82	3084,15
212,30	3078,05
212,77	3080,75
213,24	3085,22
213,71	3082,58
214,19	3084,22
214,66	3076,82
215,13	3083,42
215,60	3077,25
216,08	3083,62
216,55	3084,52
217,02	3079,70
217,49	3078,30
217,96	3083,85
218,44	3078,78
218,91	3080,98
219,38	3091,60
219,85	3079,25
220,33	3081,48
220,80	3080,20
221,27	3085,80
221,74	3082,58
222,21	3078,98
222,69	3079,38
223,16	3082,68
223,63	3079,80
224,10	3076,05
224,57	3087,48
225,04	3081,50
225,52	3079,60
225,99	3088,40
226,46	3080,35
226,93	3087,15
227,40	3078,70
227,87	3084,02
228,35	3083,50
228,82	3080,65
229,29	3077,72
229,76	3077,55
230,23	3084,05
230,70	3077,12
231,18	3076,58
231,65	3080,32
232,12	3078,95
232,59	3088,12
233,06	3077,25
233,53	3082,35
234,00	3077,68
234,48	3084,48
234,95	3078,75
235,42	3082,88
235,89	3078,92
236,36	3076,10
236,83	3075,80
237,30	3080,15
237,77	3076,15
238,24	3078,30
238,72	3083,02
239,19	3078,48
239,66	3082,25
240,13	3080,32
240,60	3082,58
241,07	3078,92
241,54	3077,95
242,01	3078,52
242,48	3083,40
242,95	3085,70
243,42	3079,88
243,90	3077,45
244,37	3076,05
244,84	3077,42
245,31	3078,92
245,78	3091,82
246,25	3079,50
246,72	3077,10
247,19	3075,48
247,66	3075,18
248,13	3082,98
248,60	3088,18
249,07	3075,52
249,54	3079,45
250,01	3076,72
250,48	3078,22
250,95	3076,98
251,42	3072,38
251,89	3078,10
252,36	3082,98
252,83	3076,90
253,30	3076,92
253,77	3081,38
254,24	3082,90
254,71	3073,35
255,18	3074,10
255,65	3079,18
256,12	3083,42
256,59	3077,80
257,06	3082,25
257,53	3081,72
258,00	3072,60
258,47	3077,32
258,94	3078,02
259,41	3077,50
259,88	3079,12
260,35	3070,52
260,82	3078,75
261,29	3077,92
261,76	3077,50
262,23	3082,50
262,70	3077,12
263,17	3085,88
263,64	3083,10
264,11	3075,12
264,58	3080,92
265,05	3079,82
265,52	3076,45
265,99	3078,82
266,46	3079,22
266,93	3080,45
267,40	3075,05
267,87	3080,80
268,34	3077,40
268,81	3081,72
269,28	3091,10
269,74	3076,55
270,21	3076,18
270,68	3077,22
271,15	3081,65
271,62	3083,30
272,09	3074,95
272,56	3075,95
273,03	3084,30
273,50	3074,65
273,97	3079,70
274,44	3077,32
274,90	3070,75
275,37	3080,38
275,84	3081,28
276,31	3075,18
276,78	3080,10
277,25	3077,88
277,72	3080,22
278,19	3076,88
278,66	3075,18
279,12	3078,70
279,59	3078,80
280,06	3071,15
280,53	3073,92
281,00	3076,12
281,47	3079,82
281,94	3083,82
282,40	3076,98
282,87	3078,08
283,34	3073,38
283,81	3074,62
284,28	3071,58
284,75	3077,40
285,21	3092,50
285,68	3080,22
286,15	3079,22
286,62	3075,92
287,09	3075,65
287,56	3081,10
288,02	3081,78
288,49	3074,15
288,96	3077,65
289,43	3071,22
289,90	3096,20
290,36	3076,75
290,83	3075,45
291,30	3093,92
291,77	3082,22
292,24	3091,55
292,70	3074,05
293,17	3080,55
293,64	3078,60
294,11	3077,02
294,58	3079,15
295,04	3076,35
295,51	3073,80
295,98	3081,12
296,45	3076,70
296,91	3077,82
297,38	3079,42
297,85	3074,12
298,32	3079,55
298,79	3085,08
299,25	3076,25
299,72	3081,38
300,19	3069,50
300,66	3083,62
301,12	3072,10
301,59	3078,48
302,06	3074,82
302,52	3081,35
302,99	3088,02
303,46	3075,75
303,93	3083,28
304,39	3076,25
304,86	3080,55
305,33	3080,40
305,80	3074,85
306,26	3077,52
306,73	3078,35
307,20	3085,05
307,66	3086,75
308,13	3078,70
308,60	3079,80
309,07	3080,42
309,53	3077,02
310,00	3085,55
310,47	3078,08
310,93	3080,55
311,40	3074,45
311,87	3080,18
312,33	3082,62
312,80	3082,20
313,27	3072,68
313,73	3080,78
314,20	3082,52
314,67	3072,92
315,13	3074,00
315,60	3075,40
316,07	3076,58
316,53	3078,80
317,00	3077,10
317,47	3080,45
317,93	3075,40
318,40	3074,45
318,87	3078,95
319,33	3076,48
319,80	3079,98
320,26	3081,00
320,73	3081,00
321,20	3079,95
321,66	3079,58
322,13	3075,75
322,60	3081,42
323,06	3077,08
323,53	3086,15
323,99	3074,45
324,46	3076,48
324,93	3078,98
325,39	3074,95
325,86	3075,25
326,32	3082,62
326,79	3079,12
327,26	3079,65
327,72	3081,45
328,19	3077,72
328,65	3090,88
329,12	3079,48
329,59	3079,30
330,05	3073,10
330,52	3080,32
330,98	3085,80
331,45	3083,70
331,91	3076,52
332,38	3069,65
332,85	3073,90
333,31	3084,55
333,78	3076,82
334,24	3081,05
334,71	3071,98
335,17	3078,60
335,64	3076,45
336,10	3074,80
336,57	3076,00
337,03	3077,35
337,50	3080,50
337,96	3079,10
338,43	3080,28
338,90	3080,30
339,36	3075,90
339,83	3079,08
340,29	3076,88
340,76	3074,52
341,22	3079,68
341,69	3078,95
342,15	3087,98
342,62	3077,78
343,08	3086,75
343,55	3082,48
344,01	3082,05
344,48	3085,08
344,94	3079,22
345,41	3081,40
345,87	3096,00
346,34	3073,70
346,80	3078,85
347,27	3075,32
347,73	3079,90
348,19	3076,15
348,66	3078,08
349,12	3086,80
349,59	3082,40
350,05	3074,35
350,52	3075,65
350,98	3075,45
351,45	3081,10
351,91	3082,30
352,38	3076,78
352,84	3078,28
353,30	3081,02
353,77	3080,95
354,23	3078,00
354,70	3078,32
355,16	3072,98
355,63	3078,95
356,09	3081,20
356,55	3076,00
357,02	3077,32
357,48	3085,12
357,95	3077,22
358,41	3086,25
358,87	3079,58
359,34	3072,98
359,80	3079,75
360,27	3081,15
360,73	3078,30
361,19	3075,15
361,66	3081,98
362,12	3085,35
362,59	3081,28
363,05	3079,60
363,51	3080,35
363,98	3082,78
364,44	3081,28
364,91	3080,90
365,37	3079,38
365,83	3086,52
366,30	3078,32
366,76	3085,72
367,22	3074,50
367,69	3087,50
368,15	3081,10
368,61	3073,15
369,08	3076,48
369,54	3076,15
370,00	3076,98
370,47	3081,12
370,93	3084,82
371,39	3075,42
371,86	3079,45
372,32	3077,88
372,78	3076,82
373,25	3081,02
373,71	3088,05
374,17	3081,55
374,64	3077,00
375,10	3080,48
375,56	3077,68
376,03	3072,52
376,49	3079,82
376,95	3079,35
377,42	3077,88
377,88	3073,85
378,34	3074,72
378,80	3083,32
379,27	3074,10
379,73	3082,18
380,19	3080,98
380,66	3076,95
381,12	3076,08
381,58	3081,00
382,04	3076,10
382,51	3073,15
382,97	3078,95
383,43	3081,05
383,89	3072,62
384,36	3075,70
384,82	3080,75
385,28	3072,50
385,74	3082,95
386,21	3076,08
386,67	3077,48
387,13	3075,72
387,59	3080,78
388,06	3078,40
388,52	3079,72
388,98	3079,58
389,44	3077,92
389,91	3083,10
390,37	3083,80
390,83	3080,25
391,29	3086,70
391,75	3086,18
392,22	3074,00
392,68	3080,32
393,14	3078,80
393,60	3082,88
394,06	3080,90
394,53	3103,30
394,99	3081,50
395,45	3077,25
395,91	3079,25
396,37	3086,68
396,84	3076,42
397,30	3074,12
397,76	3083,08
398,22	3080,48
398,68	3084,10
399,14	3075,92
399,61	3083,50
400,07	3079,40
400,53	3081,78
400,99	3081,98
401,45	3079,22
401,91	3081,18
402,38	3079,58
402,84	3078,12
403,30	3091,80
403,76	3080,45
404,22	3085,28
404,68	3078,48
405,14	3085,05
405,61	3103,60
406,07	3074,88
406,53	3081,68
406,99	3085,65
407,45	3075,52
407,91	3080,18
408,37	3079,62
408,83	3076,28
409,29	3087,52
409,76	3076,25
410,22	3081,75
410,68	3079,25
411,14	3085,10
411,60	3081,85
412,06	3082,30
412,52	3079,80
412,98	3088,15
413,44	3080,88
413,90	3086,22
414,36	3089,85
414,83	3086,75
415,29	3077,12
415,75	3085,50
416,21	3080,95
416,67	3091,85
417,13	3082,32
417,59	3082,85
418,05	3084,08
418,51	3076,40
418,97	3086,42
419,43	3078,18
419,89	3086,50
420,35	3080,58
420,81	3086,88
421,27	3080,25
421,73	3075,65
422,19	3083,70
422,65	3081,32
423,11	3082,38
423,57	3085,38
424,03	3090,80
424,49	3080,88
424,96	3090,18
425,42	3082,98
425,88	3082,22
426,34	3089,98
426,80	3082,90
427,26	3080,65
427,72	3083,10
428,18	3082,65
428,64	3086,10
429,10	3078,68
429,56	3085,15
430,02	3078,18
430,47	3085,90
430,93	3079,50
431,39	3086,00
431,85	3082,00
432,31	3083,20
432,77	3083,28
433,23	3086,45
433,69	3082,90
434,15	3087,80
434,61	3083,65
435,07	3088,88
435,53	3082,95
435,99	3087,90
436,45	3087,35
436,91	3088,25
437,37	3083,45
437,83	3089,92
438,29	3085,92
438,75	3086,75
439,21	3088,30
439,67	3100,20
440,12	3081,62
440,58	3085,18
441,04	3095,85
441,50	3092,62
441,96	3085,08
442,42	3085,40
442,88	3089,35
443,34	3086,32
443,80	3093,78
444,26	3087,45
444,72	3093,55
445,17	3090,45
445,63	3085,30
446,09	3094,88
446,55	3094,55
447,01	3093,30
447,47	3092,22
447,93	3093,30
448,39	3113,65
448,85	3098,78
449,30	3102,18
449,76	3101,42
450,22	3097,35
450,68	3099,65
451,14	3113,60
451,60	3098,50
452,06	3104,42
452,51	3109,30
452,97	3104,58
453,43	3118,02
453,89	3111,40
454,35	3113,28
454,81	3117,80
455,26	3120,28
455,72	3118,75
456,18	3125,32
456,64	3126,25
457,10	3124,72
457,56	3136,42
458,01	3140,60
458,47	3140,35
458,93	3144,30
459,39	3148,10
459,85	3155,78
460,30	3161,82
460,76	3169,58
461,22	3169,65
461,68	3183,05
462,14	3186,18
462,59	3193,20
463,05	3201,22
463,51	3210,20
463,97	3217,72
464,43	3231,65
464,88	3247,62
465,34	3249,75
465,80	3273,78
466,26	3281,78
466,71	3294,12
467,17	3308,48
467,63	3330,40
468,09	3347,78
468,54	3368,50
469,00	3386,00
469,46	3403,45
469,92	3440,10
470,37	3456,30
470,83	3479,58
471,29	3503,75
471,75	3543,48
472,20	3564,55
472,66	3606,10
473,12	3640,68
473,58	3677,12
474,03	3722,02
474,49	3774,55
474,95	3825,30
475,40	3875,42
475,86	3936,72
476,32	3987,38
476,78	4059,55
477,23	4130,42
477,69	4203,42
478,15	4278,90
478,60	4360,70
479,06	4437,50
479,52	4523,90
479,97	4631,82
480,43	4722,95
480,89	4823,55
481,34	4941,30
481,80	5066,10
482,26	5195,42
482,71	5322,15
483,17	5471,72
483,63	5625,20
484,08	5800,98
484,54	5978,12
485,00	6167,95
485,45	6372,72
485,91	6589,70
486,37	6840,05
486,82	7080,10
487,28	7331,20
487,74	7598,18
488,19	7890,38
488,65	8170,40
489,10	8483,05
489,56	8809,32
490,02	9138,22
490,47	9503,25
490,93	9850,78
491,39	10245,20
491,84	10637,35
492,30	11076,42
492,75	11548,78
493,21	12027,70
493,67	12551,80
494,12	13094,38
494,58	13688,55
495,03	14317,80
495,49	14975,55
495,95	15681,38
496,40	16400,28
496,86	17184,95
497,31	17971,05
497,77	18802,08
498,23	19658,45
498,68	20549,62
499,14	21452,48
499,59	22362,22
500,05	23330,10
500,50	24270,52
500,96	25275,22
501,41	26274,65
501,87	27341,75
502,33	28367,00
502,78	29497,98
503,24	30606,35
503,69	31763,38
504,15	32988,58
504,60	34181,82
505,06	35437,55
505,51	36739,48
505,97	38066,52
506,42	39419,62
506,88	40702,58
507,33	42095,15
507,79	43418,22
508,24	44731,65
508,70	45965,95
509,15	47180,80
509,61	48384,82
510,06	49474,15
510,52	50479,45
510,97	51370,85
511,43	52225,75
511,88	52934,50
512,34	53655,70
512,79	54244,08
513,25	54754,95
513,70	55155,95
514,16	55542,08
514,61	55853,52
515,07	56054,70
515,52	56286,48
515,98	56382,50
516,43	56441,38
516,89	56440,02
517,34	56362,88
517,80	56253,00
518,25	56053,90
518,70	55834,68
519,16	55447,90
519,61	55085,52
520,07	54539,92
520,52	54023,02
520,98	53366,60
521,43	52673,98
521,89	51874,10
522,34	51030,30
522,79	50121,58
523,25	49098,45
523,70	48148,90
524,16	47102,55
524,61	46102,25
525,06	45029,28
525,52	43986,40
525,97	42967,15
526,43	41966,62
526,88	41010,55
527,33	40031,15
527,79	39197,62
528,24	38335,20
528,70	37490,62
529,15	36715,12
529,60	35962,20
530,06	35219,85
530,51	34484,10
530,97	33802,48
531,42	33160,80
531,87	32502,25
532,33	31870,52
532,78	31256,32
533,23	30606,10
533,69	30003,28
534,14	29335,02
534,59	28733,48
535,05	28129,32
535,50	27501,15
535,96	26884,80
536,41	26270,02
536,86	25681,30
537,32	25076,60
537,77	24456,90
538,22	23903,10
538,68	23333,50
539,13	22792,98
539,58	22261,95
540,03	21736,48
540,49	21196,98
540,94	20729,95
541,39	20249,28
541,85	19797,02
542,30	19359,90
542,75	18931,40
543,21	18471,65
543,66	18101,45
544,11	17680,18
544,57	17303,28
545,02	16925,05
545,47	16527,70
545,92	16158,35
546,38	15789,08
546,83	15412,38
547,28	15068,12
547,73	14668,80
548,19	14330,58
548,64	13977,52
549,09	13642,52
549,55	13304,02
550,00	12980,72
550,45	12650,85
550,90	12333,48
551,36	12032,88
551,81	11752,55
552,26	11459,55
552,71	11197,05
553,17	10939,72
553,62	10693,05
554,07	10455,60
554,52	10233,05
554,97	10014,60
555,43	9807,20
555,88	9612,10
556,33	9402,65
556,78	9229,45
557,24	9082,68
557,69	8892,40
558,14	8736,90
558,59	8591,70
559,04	8434,98
559,50	8291,08
559,95	8145,45
560,40	8001,80
560,85	7867,05
561,30	7728,25
561,76	7588,72
562,21	7465,85
562,66	7322,52
563,11	7210,42
563,56	7075,08
564,01	6954,72
564,47	6818,40
564,92	6720,25
565,37	6613,95
565,82	6484,65
566,27	6381,65
566,72	6273,78
567,18	6163,25
567,63	6070,35
568,08	5963,80
568,53	5877,92
568,98	5785,55
569,43	5707,15
569,88	5623,08
570,34	5541,95
570,79	5472,38
571,24	5396,32
571,69	5323,38
572,14	5263,62
572,59	5190,12
573,04	5127,70
573,49	5079,92
573,94	5019,02
574,40	4957,15
574,85	4908,10
575,30	4852,80
575,75	4798,38
576,20	4752,08
576,65	4703,05
577,10	4652,10
577,55	4601,00
578,00	4560,65
578,45	4513,70
578,91	4469,55
579,36	4428,62
579,81	4384,95
580,26	4341,92
580,71	4301,32
581,16	4267,75
581,61	4232,18
582,06	4199,15
582,51	4156,95
582,96	4128,92
583,41	4091,65
583,86	4062,55
584,31	4034,40
584,76	4010,32
585,21	3975,72
585,66	3957,92
586,11	3931,78
586,56	3899,88
587,01	3886,40
587,46	3865,85
587,92	3838,38
588,37	3817,48
588,82	3798,28
589,27	3775,88
589,72	3751,52
590,17	3737,80
590,62	3721,78
591,07	3705,35
591,52	3685,80
591,97	3666,45
592,42	3670,35
592,87	3638,98
593,32	3616,85
593,77	3606,98
594,22	3592,60
594,67	3586,52
595,12	3560,85
595,56	3554,75
596,01	3536,58
596,46	3518,85
596,91	3510,38
597,36	3501,32
597,81	3483,28
598,26	3469,08
598,71	3469,95
599,16	3452,08
599,61	3443,28
600,06	3432,68
600,51	3427,52
600,96	3412,32
601,41	3400,18
601,86	3400,82
602,31	3383,62
602,76	3373,05
603,21	3375,60
603,66	3364,98
604,11	3360,50
604,55	3343,42
605,00	3336,75
605,45	3337,25
605,90	3336,45
606,35	3315,45
606,80	3319,32
607,25	3315,32
607,70	3308,72
608,15	3304,75
608,60	3290,12
609,04	3304,92
609,49	3283,25
609,94	3277,65
610,39	3266,72
610,84	3260,98
611,29	3266,12
611,74	3258,68
612,19	3258,82
612,64	3251,38
613,08	3238,98
613,53	3241,80
613,98	3235,78
614,43	3231,80
614,88	3229,15
615,33	3224,65
615,78	3230,75
616,22	3221,75
616,67	3215,55
617,12	3209,58
617,57	3207,60
618,02	3198,65
618,47	3211,52
618,91	3202,08
619,36	3196,10
619,81	3207,55
620,26	3186,78
620,71	3183,02
621,16	3177,58
621,60	3176,75
622,05	3177,98
622,50	3176,02
622,95	3173,52
623,40	3174,80
623,84	3173,08
624,29	3171,92
624,74	3164,65
625,19	3164,18
625,64	3162,48
626,08	3167,88
626,53	3158,22
626,98	3164,42
627,43	3163,02
627,87	3158,45
628,32	3159,92
628,77	3162,05
629,22	3158,45
629,66	3151,42
630,11	3150,78
630,56	3156,12
631,01	3142,78
631,46	3147,85
631,90	3147,40
632,35	3141,12
632,80	3142,62
633,25	3146,12
633,69	3141,25
634,14	3144,02
634,59	3145,15
635,03	3133,32
635,48	3140,45
635,93	3139,92
636,38	3136,20
636,82	3140,15
637,27	3136,10
637,72	3141,35
638,16	3138,95
638,61	3142,68
639,06	3132,58
639,51	3135,38
639,95	3134,25
640,40	3130,68
640,85	3127,98
641,29	3133,08
641,74	3129,48
642,19	3124,35
642,63	3127,52
643,08	3127,80
643,53	3124,70
643,97	3127,30
644,42	3129,72
644,87	3120,10
645,31	3119,28
645,76	3117,70
646,21	3115,42
646,65	3119,00
647,10	3121,22
647,55	3109,75
647,99	3113,22
648,44	3110,35
648,89	3107,65
649,33	3108,72
649,78	3113,72
650,23	3110,15
650,67	3106,02
651,12	3106,90
651,56	3105,02
652,01	3109,78
652,46	3109,85
652,90	3105,65
653,35	3108,35
653,80	3109,02
654,24	3104,48
654,69	3100,58
655,13	3108,08
655,58	3104,10
656,03	3124,08
656,47	3098,30
656,92	3100,98
657,36	3097,72
657,81	3101,72
658,26	3096,65
658,70	3099,52
659,15	3097,32
659,59	3097,50
660,04	3098,42
660,48	3100,40
660,93	3096,40
661,38	3092,30
661,82	3102,10
662,27	3094,20
662,71	3096,22
663,16	3099,22
663,60	3100,05
664,05	3094,05
664,49	3099,42
664,94	3091,32
665,38	3113,92
665,83	3092,95
666,28	3100,42
666,72	3094,55
667,17	3091,85
667,61	3093,55
668,06	3088,92
668,50	3086,12
668,95	3096,72
669,39	3091,88
669,84	3091,85
670,28	3091,02
670,73	3087,52
671,17	3094,05
671,62	3088,95
672,06	3093,52
672,51	3094,50
672,95	3108,18
673,40	3098,30
673,84	3088,20
674,29	3093,48
674,73	3089,12
675,18	3102,45
675,62	3085,58
676,07	3087,80
676,51	3096,92
676,95	3089,15
677,40	3097,15
677,84	3101,42
678,29	3090,60
678,73	3090,50
679,18	3096,28
679,62	3107,02
680,07	3091,82
680,51	3092,98
680,96	3084,55
681,40	3082,12
681,84	3088,62
682,29	3089,60
682,73	3089,25
683,18	3089,08
683,62	3103,65
684,07	3085,90
684,51	3088,60
684,95	3092,52
685,40	3085,30
685,84	3088,28
686,29	3088,58
686,73	3082,62
687,17	3082,52
687,62	3086,75
688,06	3090,15
688,51	3092,22
688,95	3091,25
689,39	3091,95
689,84	3095,78
690,28	3091,90
690,73	3089,88
691,17	3093,00
691,61	3086,42
692,06	3087,78
692,50	3092,15
692,94	3091,05
693,39	3092,35
693,83	3094,85
694,27	3106,50
694,72	3094,10
695,16	3084,92
695,60	3087,32
696,05	3089,05
696,49	3083,30
696,94	3087,08
697,38	3083,85
697,82	3088,72
698,27	3086,15
698,71	3090,20
699,15	3092,25
699,59	3088,88
700,04	3086,98
700,48	3106,58
700,92	3087,58
701,37	3088,48
701,81	3095,80
702,25	3085,40
702,70	3085,32
703,14	3089,70
703,58	3083,68
704,03	3092,00
704,47	3091,82
704,91	3084,35
705,35	3085,80
705,80	3091,78
706,24	3092,12
706,68	3105,00
707,13	3082,98
707,57	3094,10
708,01	3084,35
708,45	3085,60
708,90	3087,88
709,34	3089,15
709,78	3085,68
710,22	3091,48
710,67	3091,32
711,11	3092,10
711,55	3079,52
711,99	3087,25
712,44	3087,05
712,88	3086,30
713,32	3089,70
713,76	3092,40
714,21	3088,22
714,65	3083,55
715,09	3085,90
715,53	3086,82
715,97	3082,88
716,42	3090,22
716,86	3086,72
717,30	3087,98
717,74	3083,52
718,18	3096,45
718,63	3087,05
719,07	3085,68
719,51	3095,78
719,95	3091,30
720,39	3085,18
720,84	3084,78
721,28	3083,28
721,72	3084,10
722,16	3080,48
722,60	3078,02
723,04	3090,00
723,49	3095,40
723,93	3081,18
724,37	3080,70
724,81	3084,38
725,25	3085,15
725,69	3082,35
726,14	3086,80
726,58	3080,90
727,02	3084,80
727,46	3083,42
727,90	3079,65
728,34	3078,82
728,78	3085,10
729,23	3078,70
729,67	3088,18
730,11	3080,52
730,55	3083,40
730,99	3082,40
731,43	3082,52
731,87	3095,70
732,31	3081,00
732,76	3089,98
733,20	3085,65
733,64	3078,45
734,08	3089,60
734,52	3081,58
734,96	3088,92
735,40	3079,18
735,84	3083,80
736,28	3086,50
736,72	3083,10
737,16	3083,62
737,61	3078,80
738,05	3085,65
738,49	3084,95
738,93	3080,55
739,37	3088,15
739,81	3085,78
740,25	3083,80
740,69	3098,82
741,13	3078,90
741,57	3085,38
742,01	3086,60
742,45	3087,72
742,89	3082,72
743,33	3080,70
743,77	3084,30
744,21	3077,95
744,65	3089,00
745,09	3082,50
745,53	3078,68
745,98	3085,62
746,42	3086,78
746,86	3081,75
747,30	3084,05
747,74	3077,40
748,18	3079,00
748,62	3082,78
749,06	3087,02
749,50	3085,32
749,94	3082,70
750,38	3088,42
750,82	3089,30
751,26	3075,75
751,70	3079,42
752,14	3075,88
752,58	3084,05
753,02	3082,65
753,45	3079,65
753,89	3085,02
754,33	3094,88
754,77	3080,98
755,21	3081,82
755,65	3076,70
756,09	3080,68
756,53	3080,32
756,97	3080,02
757,41	3093,35
757,85	3076,50
758,29	3080,92
758,73	3075,78
759,17	3079,45
759,61	3078,10
760,05	3081,65
760,49	3082,08
760,93	3087,38
761,37	3079,42
761,80	3087,88
762,24	3080,28
762,68	3080,12
763,12	3080,75
763,56	3078,65
764,00	3077,00
764,44	3077,00
764,88	3082,80
765,32	3080,08
765,76	3084,42
766,20	3085,12
766,63	3081,25
767,07	3075,42
767,51	3078,08
767,95	3085,18
768,39	3078,65
768,83	3074,48
769,27	3077,82
769,71	3083,38
770,14	3077,65
770,58	3077,28
771,02	3077,30
771,46	3078,40
771,90	3079,02
772,34	3081,10
772,78	3082,40
773,21	3080,32
773,65	3089,02
774,09	3076,70
774,53	3082,35
774,97	3074,42
775,41	3073,62
775,84	3082,08
776,28	3081,05
776,72	3080,80
777,16	3075,60
777,60	3077,88
778,04	3077,50
778,47	3071,75
778,91	3076,10
779,35	3076,52
779,79	3081,18
780,23	3080,20
780,66	3073,98
781,10	3076,25
781,54	3080,42
781,98	3079,05
782,42	3080,50
782,85	3078,58
783,29	3079,60
783,73	3094,20
784,17	3086,92
784,61	3079,12
785,04	3083,78
785,48	3080,58
785,92	3077,00
786,36	3078,78
786,79	3073,70
787,23	3076,82
787,67	3081,70
788,11	3082,22
788,54	3079,75
788,98	3076,05
789,42	3078,10
789,86	3073,78
790,29	3081,10
790,73	3083,02
791,17	3083,20
791,60	3075,65
792,04	3074,25
792,48	3079,05
792,92	3074,15
793,35	3078,80
793,79	3074,48
794,23	3078,92
794,67	3074,10
795,10	3075,20
795,54	3079,98
795,98	3075,95
796,41	3078,68
796,85	3076,98
797,29	3097,02
797,72	3083,85
798,16	3077,62
798,60	3078,00
799,03	3077,32
799,47	3072,45
799,91	3079,48
800,34	3076,95
800,78	3076,82
801,22	3076,05
801,65	3069,98
802,09	3077,62
802,53	3082,55
802,96	3078,18
803,40	3074,48
803,84	3084,20
804,27	3078,10
804,71	3074,02
805,15	3077,78
805,58	3076,25
806,02	3073,68
806,46	3082,35
806,89	3083,95
807,33	3081,75
807,76	3079,35
808,20	3075,22
808,64	3074,50
809,07	3084,72
809,51	3084,65
809,95	3084,70
810,38	3083,22
810,82	3086,12
811,25	3073,90
811,69	3076,55
812,13	3074,82
812,56	3079,80
813,00	3075,92
813,43	3072,12
813,87	3072,22
814,30	3079,10
814,74	3083,55
815,18	3091,70
815,61	3076,98
816,05	3073,60
816,48	3077,90
816,92	3086,15
817,35	3080,08
817,79	3076,32
818,23	3078,62
818,66	3077,52
819,10	3078,08
819,53	3074,92
819,97	3072,38
820,40	3073,02
820,84	3079,50
821,27	3073,38
821,71	3080,45
822,14	3075,15
822,58	3078,70
823,01	3082,42
823,45	3076,62
823,88	3077,75
824,32	3072,15
824,75	3076,52
825,19	3070,48
825,63	3082,32
826,06	3069,68
826,50	3077,52
826,93	3073,68
827,37	3071,58
827,80	3075,58
828,23	3077,62
828,67	3077,40
829,10	3076,90
829,54	3071,80
829,97	3074,78
830,41	3067,32
830,84	3075,75
831,28	3076,75
831,71	3083,38
832,15	3073,90
832,58	3077,78
833,02	3076,28
833,45	3073,10
833,89	3085,55
834,32	3072,90
834,75	3087,00
835,19	3081,22
835,62	3077,15
836,06	3070,48
836,49	3075,78
836,93	3073,95
837,36	3079,20
837,79	3078,22
838,23	3074,25
838,66	3072,35
839,10	3080,52
839,53	3074,38
839,97	3075,22
840,40	3074,78
840,83	3080,52
841,27	3071,22
841,70	3073,68
842,14	3080,12
842,57	3074,62
843,00	3082,38
843,44	3086,62
843,87	3077,32
844,31	3079,35
844,74	3069,82
845,17	3072,25
845,61	3072,08
846,04	3073,90
846,47	3079,25
846,91	3073,52
847,34	3076,55
847,77	3077,32
848,21	3072,68
848,64	3075,18
849,08	3076,52
849,51	3079,50
849,94	3070,88
850,38	3071,05
850,81	3075,05
851,24	3072,15
851,68	3072,70
852,11	3071,15
852,54	3075,72
852,98	3078,45
853,41	3076,95
853,84	3073,30
854,28	3080,55
854,71	3071,35
855,14	3076,38
855,57	3080,08
856,01	3071,95
856,44	3073,48
856,87	3079,50
857,31	3069,72
857,74	3078,20
858,17	3071,25
858,61	3070,82
859,04	3077,55
859,47	3082,62
859,90	3073,95
860,34	3075,98
860,77	3073,38
861,20	3067,95
861,63	3081,62
862,07	3068,45
862,50	3071,55
862,93	3074,40
863,37	3074,28
863,80	3074,72
864,23	3074,45
864,66	3072,35
865,10	3073,85
865,53	3074,92
865,96	3073,82
866,39	3072,62
866,82	3078,10
867,26	3070,72
867,69	3072,10
868,12	3073,52
868,55	3068,15
868,99	3073,12
869,42	3069,18
869,85	3076,75
870,28	3071,18
870,71	3075,18
871,15	3072,88
871,58	3070,68
872,01	3074,62
872,44	3074,48
872,87	3080,75
873,31	3086,68
873,74	3070,38
874,17	3074,98
874,60	3074,02
875,03	3070,88
875,47	3074,08
875,90	3077,22
876,33	3073,10
876,76	3078,55
877,19	3075,52
877,62	3071,88
878,06	3068,72
878,49	3078,00
878,92	3067,80
879,35	3071,95
879,78	3073,90
880,21	3071,55
880,64	3073,30
881,08	3071,15
881,51	3074,40
881,94	3072,22
882,37	3080,78
882,80	3067,75
883,23	3068,58
883,66	3073,12
884,09	3071,80
884,53	3076,60
884,96	3072,12
885,39	3072,60
885,82	3071,68
886,25	3071,28
886,68	3068,08
887,11	3076,08
887,54	3074,10
887,97	3076,85
888,40	3078,48
888,84	3071,68
889,27	3068,92
889,70	3082,00
890,13	3069,80
890,56	3068,42
890,99	3071,80
891,42	3069,75
891,85	3090,15
892,28	3067,78
892,71	3077,28
893,14	3070,25
893,57	3074,75
894,00	3076,35
894,43	3066,35
894,86	3071,30
895,29	3072,02
895,73	3066,70
896,16	3069,72
896,59	3074,38
897,02	3071,38
897,45	3076,52
897,88	3071,02
898,31	3068,12
898,74	3074,60
899,17	3075,85
899,60	3067,75
900,03	3068,90
900,46	3070,15
900,89	3073,28
901,32	3076,60
901,75	3070,52
902,18	3070,20
902,61	3069,62
903,04	3074,38
903,47	3076,62
903,90	3069,28
904,33	3084,75
904,76	3081,12
905,19	3070,60
905,62	3069,92
906,05	3080,75
906,48	3069,60
906,91	3074,12
907,34	3070,25
907,76	3073,28
908,19	3066,88
908,62	3076,40
909,05	3072,35
909,48	3075,20
909,91	3074,22
910,34	3071,80
910,77	3074,28
911,20	3078,42
911,63	3070,02
912,06	3066,98
912,49	3072,22
912,92	3073,30
913,35	3069,98
913,78	3067,40
914,21	3068,38
914,63	3073,18
915,06	3070,28
915,49	3074,05
915,92	3070,82
916,35	3070,90
916,78	3067,12
917,21	3067,72
917,64	3070,35
918,07	3069,88
918,50	3075,55
918,92	3069,25
919,35	3078,18
919,78	3072,00
920,21	3075,05
920,64	3068,08
921,07	3071,75
921,50	3071,38
921,93	3075,18
922,35	3074,30
922,78	3072,88
923,21	3078,45
923,64	3075,95
924,07	3069,75
924,50	3067,42
924,92	3068,72
925,35	3072,52
925,78	3079,80
926,21	3073,80
926,64	3067,08
927,07	3073,72
927,49	3068,50
927,92	3072,90
928,35	3083,42
928,78	3070,00
929,21	3074,90
929,64	3066,45
930,06	3083,55
930,49	3071,02
930,92	3066,92
931,35	3076,25
931,78	3070,50
932,20	3072,48
932,63	3073,70
933,06	3069,22
933,49	3072,60
933,92	3066,35
934,34	3078,30
934,77	3076,42
935,20	3083,92
935,63	3069,52
936,05	3074,85
936,48	3077,80
936,91	3073,80
937,34	3073,42
937,76	3067,02
938,19	3070,20
938,62	3067,72
939,05	3072,20
939,47	3067,10
939,90	3073,18
940,33	3067,30
940,76	3071,42
941,18	3074,68
941,61	3065,72
942,04	3070,75
942,47	3075,32
942,89	3081,60
943,32	3069,45
943,75	3075,35
944,17	3068,58
944,60	3069,80
945,03	3073,62
945,46	3066,12
945,88	3066,70
946,31	3074,02
946,74	3068,92
947,16	3071,12
947,59	3071,08
948,02	3071,35
948,44	3071,48
948,87	3077,70
949,30	3068,50
949,72	3071,18
950,15	3074,58
950,58	3064,90
951,00	3068,52
951,43	3065,92
951,86	3082,68
952,28	3077,82
952,71	3068,45
953,14	3069,78
953,56	3072,60
953,99	3064,40
954,42	3074,78
954,84	3068,35
955,27	3078,65
955,70	3067,18
956,12	3071,12
956,55	3069,35
956,98	3068,12
957,40	3069,72
957,83	3071,60
958,25	3066,10
958,68	3074,02
959,11	3086,62
959,53	3065,52
959,96	3075,68
960,38	3071,72
960,81	3069,15
961,24	3068,52
961,66	3067,58
962,09	3063,12
962,51	3069,18
962,94	3074,62
963,37	3073,10
963,79	3075,35
964,22	3072,62
964,64	3068,32
965,07	3070,62
965,49	3071,60
965,92	3071,48
966,35	3069,85
966,77	3068,72
967,20	3073,10
967,62	3070,45
968,05	3070,58
968,47	3071,70
968,90	3067,15
969,32	3068,62
969,75	3074,98
970,17	3092,28
970,60	3073,48
971,03	3070,58
971,45	3072,08
971,88	3065,10
972,30	3067,52
972,73	3072,40
973,15	3066,85
973,58	3071,38
974,00	3065,95
974,43	3069,55
974,85	3068,02
975,28	3071,40
975,70	3067,15
976,13	3072,25
976,55	3072,28
976,98	3066,30
977,40	3067,85
977,83	3067,25
978,25	3069,35
978,68	3066,42
979,10	3072,00
979,53	3069,38
979,95	3071,22
980,37	3068,25
980,80	3069,90
981,22	3076,30
981,65	3071,65
982,07	3066,98
982,50	3070,50
982,92	3075,02
983,35	3068,72
983,77	3068,75
984,20	3067,95
984,62	3067,95
985,04	3067,90
985,47	3071,78
985,89	3075,98
986,32	3067,52
986,74	3064,15
987,17	3069,85
987,59	3072,28
988,01	3068,65
988,44	3066,60
988,86	3072,28
989,29	3068,38
989,71	3068,42
990,13	3069,72
990,56	3072,72
990,98	3069,02
991,41	3068,08
991,83	3072,28
992,25	3069,52
992,68	3070,58
993,10	3077,98
993,53	3067,65
993,95	3065,40
994,37	3068,82
994,80	3069,15
995,22	3068,95
995,64	3071,82
996,07	3071,98
996,49	3070,55
996,91	3070,70
997,34	3062,28
997,76	3066,48
998,18	3062,92
998,61	3075,05
999,03	3074,85
999,45	3066,40
999,88	3071,00
1000,30	3066,00
1000,72	3076,85
1001,15	3071,45
1001,57	3071,78
1001,99	3078,12
1002,42	3067,00
1002,84	3068,60
1003,26	3074,42
1003,69	3068,82
1004,11	3070,80
1004,53	3066,10
1004,96	3073,12
1005,38	3066,22
1005,80	3070,45
1006,22	3070,60
1006,65	3077,68
1007,07	3068,68
1007,49	3067,12
1007,92	3073,30
1008,34	3068,22
1008,76	3065,80
1009,18	3064,15
1009,61	3071,50
1010,03	3067,58
1010,45	3087,70
1010,87	3075,35
1011,30	3074,75
1011,72	3069,65
1012,14	3072,50
1012,56	3073,08
1012,99	3070,00
1013,41	3073,35
1013,83	3070,28
1014,25	3069,70
1014,68	3070,55
1015,10	3065,62
1015,52	3075,38
1015,94	3065,85
1016,37	3075,38
1016,79	3067,70
1017,21	3070,48
1017,63	3065,65
1018,05	3070,90
1018,48	3069,68
1018,90	3069,45
1019,32	3071,95
1019,74	3062,80
1020,16	3084,88
1020,59	3075,58
1021,01	3073,95
1021,43	3067,88
1021,85	3068,25
1022,27	3072,50
1022,69	3071,22
1023,12	3073,52
1023,54	3070,85
1023,96	3086,75
1024,38	3074,65
1024,80	3073,90
1025,22	3071,85
1025,65	3070,35
1026,07	3070,98
1026,49	3073,98
1026,91	3066,35
1027,33	3066,05
1027,75	3080,92
1028,17	3072,22
1028,60	3072,58
1029,02	3069,40
1029,44	3071,68
1029,86	3069,68
1030,28	3080,82
1030,70	3069,62
1031,12	3068,95
1031,54	3073,32
1031,97	3075,72
1032,39	3066,45
1032,81	3071,15
1033,23	3071,98
1033,65	3069,52
1034,07	3074,62
1034,49	3066,50
1034,91	3067,48
1035,33	3072,25
1035,75	3073,22
1036,18	3067,10
1036,60	3077,78
1037,02	3066,85
1037,44	3067,48
1037,86	3072,98
1038,28	3064,10
1038,70	3073,98
1039,12	3074,25
1039,54	3071,98
1039,96	3078,20
1040,38	3077,92
1040,80	3069,82
1041,22	3070,90
1041,64	3071,55
1042,06	3068,22
1042,48	3077,38
1042,90	3074,08
1043,32	3072,18
1043,74	3073,25
1044,17	3072,15
1044,59	3074,88
1045,01	3065,60
1045,43	3070,00
1045,85	3068,95
1046,27	3066,78
1046,69	3070,65
1047,11	3075,52
1047,53	3068,02
1047,95	3072,72
1048,37	3074,55
1048,79	3067,85
1049,21	3074,32
1049,63	3071,42
1050,05	3074,55
1050,47	3068,22
1050,89	3070,28
1051,31	3071,12
1051,72	3071,82
1052,14	3076,18
1052,56	3073,92
1052,98	3070,82
1053,40	3075,50
1053,82	3062,88
1054,24	3069,52
1054,66	3062,05
1055,08	3068,70
1055,50	3066,45
1055,92	3071,62
1056,34	3070,75
1056,76	3078,68
1057,18	3075,55
1057,60	3074,38
1058,02	3071,65
1058,44	3092,40
1058,86	3065,50
1059,28	3073,52
1059,69	3075,48
1060,11	3072,05
1060,53	3068,52
1060,95	3068,82
1061,37	3073,08
1061,79	3071,98
1062,21	3068,22
1062,63	3073,95
1063,05	3077,28
1063,47	3071,10
1063,88	3069,48
1064,30	3068,28
1064,72	3075,32
1065,14	3074,85
1065,56	3070,08
1065,98	3066,30
1066,40	3066,75
1066,82	3074,62
1067,23	3071,50
1067,65	3071,12
1068,07	3072,60
1068,49	3068,35
1068,91	3079,52
1069,33	3073,25
1069,75	3067,58
1070,16	3064,55
1070,58	3075,85
1071,00	3075,68
1071,42	3074,88
1071,84	3070,52
1072,26	3074,35
1072,67	3068,88
1073,09	3066,95
1073,51	3064,72
1073,93	3073,00
1074,35	3067,92
1074,77	3064,25
1075,18	3070,30
1075,60	3068,85
1076,02	3071,52
1076,44	3069,50
1076,86	3065,62
1077,27	3069,75
1077,69	3074,65
1078,11	3071,12
1078,53	3072,58
1078,94	3075,60
1079,36	3064,38
1079,78	3070,88
1080,20	3068,08
1080,62	3069,62
1081,03	3071,70
1081,45	3071,95
1081,87	3065,88
1082,29	3072,78
1082,70	3069,28
1083,12	3069,02
1083,54	3071,78
1083,96	3069,35
1084,37	3076,15
1084,79	3070,18
1085,21	3070,50
1085,63	3076,38
1086,04	3065,50
1086,46	3067,50
1086,88	3071,38
1087,30	3064,18
1087,71	3074,88
1088,13	3308,98
1088,55	3068,52
1088,96	3067,70
1089,38	3068,38
1089,80	3069,58
1090,22	3075,15
1090,63	3069,88
1091,05	3066,32
1091,47	3073,40
1091,88	3068,25
1092,30	3065,22
1092,72	3069,20
1093,13	3069,10
1093,55	3069,38
1093,97	3070,30
1094,38	3071,25
1094,80	3068,70
1095,22	3068,72
1095,63	3067,18
1096,05	3068,42
1096,47	3071,60
1096,88	3065,98
1097,30	3071,28
1097,72	3068,82
1098,13	3073,30
1098,55	3071,08
1098,97	3074,20
1099,38	3069,05
1099,80	3068,92
1100,21	3069,18
1100,63	3068,58
1101,05	3066,42
1101,46	3070,18
1101,88	3066,40
1102,30	3067,55
1102,71	3068,70
1103,13	3068,05
1103,54	3072,42
1103,96	3069,85
1104,38	3077,68
1104,79	3060,12
1105,21	3070,30
1105,62	3068,82
1106,04	3066,85
1106,46	3068,78
1106,87	3061,12
1107,29	3063,32
1107,70	3073,92
1108,12	3064,82
1108,54	3070,65
1108,95	3068,38
1109,37	3071,28
1109,78	3061,52
1110,20	3067,25
1110,61	3063,78
1111,03	3063,78
1111,44	3063,78
1111,86	3063,78
1112,28	3063,78
1112,69	3063,78
1113,11	3063,78
1113,52	3063,78
1113,94	3063,78
1114,35	3063,78
1114,77	3063,78
1115,18	3063,78
1115,60	3063,78
1116,01	3063,78
1116,43	3063,78
1116,84	3063,78
1117,26	3063,78
1117,67	3063,78
1118,09	3063,78
1118,50	3063,78
1118,92	3063,78
>>>>>End Processed Spectral Data<<<<<
