SpectraSuite Data File
++++++++++++++++++++++++++++++++++++
Date: Tue Jul 12 15:51:12 EEST 2011
User: OO Maya
Dark Spectrum Present: No
Reference Spectrum Present: No
Number of Sampled Component Spectra: 1
Spectrometers: MAYP11278
Integration Time (usec): 53000 (MAYP11278)
Spectra Averaged: 40 (MAYP11278)
Boxcar Smoothing: 0 (MAYP11278)
Correct for Electrical Dark: No (MAYP11278)
Strobe/Lamp Enabled: No (MAYP11278)
Correct for Detector Non-linearity: No (MAYP11278)
Correct for Stray Light: No (MAYP11278)
Number of Pixels in Processed Spectrum: 2068
>>>>>Begin Processed Spectral Data<<<<<
200,00	3090,12
200,47	2999,48
200,95	2998,35
201,42	2998,88
201,89	3095,78
202,37	3099,85
202,84	3100,25
203,31	3100,50
203,79	3108,90
204,26	3104,15
204,73	3101,78
205,20	3096,92
205,68	3105,18
206,15	3100,38
206,62	3108,32
207,10	3103,28
207,57	3112,08
208,04	3104,25
208,51	3103,20
208,99	3119,02
209,46	3101,95
209,93	3099,70
210,41	3100,78
210,88	3100,80
211,35	3107,45
211,82	3108,95
212,30	3101,85
212,77	3104,48
213,24	3110,45
213,71	3108,35
214,19	3109,50
214,66	3099,95
215,13	3106,75
215,60	3100,18
216,08	3110,12
216,55	3113,30
217,02	3104,02
217,49	3100,95
217,96	3114,28
218,44	3102,55
218,91	3107,98
219,38	3124,20
219,85	3105,72
220,33	3107,08
220,80	3103,82
221,27	3110,10
221,74	3108,68
222,21	3105,48
222,69	3106,15
223,16	3107,65
223,63	3104,50
224,10	3101,30
224,57	3115,05
225,04	3108,75
225,52	3103,75
225,99	3118,90
226,46	3106,48
226,93	3114,52
227,40	3106,88
227,87	3109,98
228,35	3110,00
228,82	3106,90
229,29	3104,35
229,76	3103,85
230,23	3112,70
230,70	3098,70
231,18	3104,22
231,65	3101,98
232,12	3106,92
232,59	3115,85
233,06	3103,32
233,53	3113,48
234,00	3100,48
234,48	3111,30
234,95	3105,78
235,42	3111,12
235,89	3107,68
236,36	3102,60
236,83	3102,32
237,30	3104,05
237,77	3104,82
238,24	3108,18
238,72	3112,70
239,19	3105,48
239,66	3111,65
240,13	3109,52
240,60	3113,18
241,07	3105,68
241,54	3108,30
242,01	3104,50
242,48	3111,58
242,95	3116,15
243,42	3107,90
243,90	3109,28
244,37	3103,45
244,84	3113,12
245,31	3108,38
245,78	3130,30
246,25	3108,45
246,72	3104,20
247,19	3102,75
247,66	3099,68
248,13	3112,42
248,60	3122,28
249,07	3105,20
249,54	3110,38
250,01	3105,68
250,48	3110,30
250,95	3108,55
251,42	3100,05
251,89	3111,75
252,36	3115,45
252,83	3110,22
253,30	3106,65
253,77	3113,50
254,24	3114,30
254,71	3102,28
255,18	3103,02
255,65	3113,22
256,12	3118,32
256,59	3111,78
257,06	3116,40
257,53	3114,82
258,00	3103,62
258,47	3108,58
258,94	3106,40
259,41	3110,60
259,88	3112,18
260,35	3098,95
260,82	3108,90
261,29	3113,42
261,76	3109,30
262,23	3118,38
262,70	3108,85
263,17	3122,42
263,64	3117,88
264,11	3103,10
264,58	3115,65
265,05	3111,70
265,52	3108,18
265,99	3111,42
266,46	3111,82
266,93	3116,90
267,40	3106,52
267,87	3111,40
268,34	3113,50
268,81	3113,10
269,28	3129,88
269,74	3109,80
270,21	3107,00
270,68	3111,45
271,15	3115,12
271,62	3120,98
272,09	3107,68
272,56	3105,68
273,03	3119,22
273,50	3101,78
273,97	3111,68
274,44	3111,72
274,90	3103,82
275,37	3114,65
275,84	3113,58
276,31	3108,60
276,78	3111,85
277,25	3111,20
277,72	3115,00
278,19	3106,50
278,66	3110,02
279,12	3109,92
279,59	3109,80
280,06	3100,38
280,53	3103,02
281,00	3106,60
281,47	3111,88
281,94	3116,18
282,40	3107,78
282,87	3109,62
283,34	3102,35
283,81	3102,20
284,28	3098,70
284,75	3108,30
285,21	3132,50
285,68	3116,08
286,15	3114,60
286,62	3104,70
287,09	3106,10
287,56	3113,52
288,02	3113,58
288,49	3102,45
288,96	3106,42
289,43	3101,58
289,90	3134,35
290,36	3107,50
290,83	3102,90
291,30	3133,52
291,77	3115,05
292,24	3126,32
292,70	3107,95
293,17	3117,20
293,64	3105,30
294,11	3108,95
294,58	3114,18
295,04	3107,95
295,51	3103,68
295,98	3112,98
296,45	3109,42
296,91	3112,60
297,38	3112,32
297,85	3100,52
298,32	3113,50
298,79	3122,00
299,25	3106,90
299,72	3114,50
300,19	3102,32
300,66	3118,85
301,12	3103,45
301,59	3109,42
302,06	3109,35
302,52	3115,90
302,99	3127,10
303,46	3106,30
303,93	3121,05
304,39	3106,82
304,86	3115,58
305,33	3115,22
305,80	3105,12
306,26	3112,85
306,73	3114,50
307,20	3123,35
307,66	3120,78
308,13	3114,85
308,60	3113,25
309,07	3116,78
309,53	3109,22
310,00	3123,95
310,47	3111,88
310,93	3114,52
311,40	3107,15
311,87	3116,88
312,33	3116,80
312,80	3120,60
313,27	3104,02
313,73	3115,35
314,20	3116,70
314,67	3106,18
315,13	3109,18
315,60	3104,38
316,07	3111,50
316,53	3114,42
317,00	3114,32
317,47	3114,75
317,93	3106,80
318,40	3107,55
318,87	3114,68
319,33	3108,88
319,80	3118,35
320,26	3119,48
320,73	3114,02
321,20	3114,15
321,66	3114,98
322,13	3110,82
322,60	3117,98
323,06	3109,65
323,53	3124,65
323,99	3107,70
324,46	3110,72
324,93	3113,55
325,39	3106,88
325,86	3108,95
326,32	3118,02
326,79	3113,25
327,26	3113,62
327,72	3115,30
328,19	3115,10
328,65	3130,15
329,12	3110,40
329,59	3111,10
330,05	3104,45
330,52	3115,58
330,98	3122,50
331,45	3115,38
331,91	3112,00
332,38	3103,65
332,85	3104,55
333,31	3124,90
333,78	3108,38
334,24	3114,20
334,71	3105,45
335,17	3113,42
335,64	3110,82
336,10	3107,72
336,57	3111,00
337,03	3109,02
337,50	3115,42
337,96	3113,18
338,43	3112,98
338,90	3111,88
339,36	3108,55
339,83	3110,00
340,29	3109,62
340,76	3108,65
341,22	3116,18
341,69	3112,45
342,15	3124,65
342,62	3108,72
343,08	3126,40
343,55	3118,00
344,01	3113,98
344,48	3119,98
344,94	3115,35
345,41	3116,28
345,87	3138,58
346,34	3103,82
346,80	3112,32
347,27	3106,30
347,73	3115,40
348,19	3111,60
348,66	3110,38
349,12	3123,68
349,59	3118,75
350,05	3107,70
350,52	3107,82
350,98	3108,32
351,45	3115,32
351,91	3117,90
352,38	3109,60
352,84	3113,20
353,30	3118,60
353,77	3113,88
354,23	3114,30
354,70	3112,05
355,16	3107,70
355,63	3113,38
356,09	3117,48
356,55	3109,70
357,02	3107,58
357,48	3121,78
357,95	3110,90
358,41	3119,10
358,87	3115,02
359,34	3105,65
359,80	3114,38
360,27	3118,08
360,73	3115,28
361,19	3109,30
361,66	3115,78
362,12	3126,95
362,59	3115,12
363,05	3112,88
363,51	3115,95
363,98	3116,48
364,44	3114,45
364,91	3118,82
365,37	3117,10
365,83	3125,88
366,30	3109,52
366,76	3125,25
367,22	3107,75
367,69	3131,28
368,15	3118,30
368,61	3105,02
369,08	3106,52
369,54	3108,60
370,00	3114,90
370,47	3118,52
370,93	3120,52
371,39	3113,52
371,86	3110,98
372,32	3114,32
372,78	3112,00
373,25	3116,25
373,71	3131,50
374,17	3115,95
374,64	3110,62
375,10	3117,90
375,56	3112,70
376,03	3107,25
376,49	3117,25
376,95	3113,52
377,42	3116,05
377,88	3105,65
378,34	3105,85
378,80	3120,55
379,27	3106,52
379,73	3118,92
380,19	3114,32
380,66	3112,38
381,12	3110,88
381,58	3118,30
382,04	3110,22
382,51	3105,78
382,97	3112,32
383,43	3115,12
383,89	3108,12
384,36	3108,48
384,82	3114,82
385,28	3103,98
385,74	3120,58
386,21	3113,35
386,67	3110,60
387,13	3108,02
387,59	3115,20
388,06	3114,90
388,52	3116,28
388,98	3115,08
389,44	3113,62
389,91	3119,58
390,37	3123,85
390,83	3116,12
391,29	3123,28
391,75	3123,45
392,22	3108,02
392,68	3117,38
393,14	3117,08
393,60	3124,12
394,06	3116,18
394,53	3153,12
394,99	3116,70
395,45	3112,88
395,91	3115,72
396,37	3126,88
396,84	3110,35
397,30	3108,28
397,76	3124,15
398,22	3116,98
398,68	3123,90
399,14	3112,32
399,61	3123,85
400,07	3116,75
400,53	3121,48
400,99	3122,98
401,45	3118,38
401,91	3123,85
402,38	3116,10
402,84	3116,10
403,30	3137,22
403,76	3119,58
404,22	3128,05
404,68	3116,70
405,14	3125,78
405,61	3152,98
406,07	3114,95
406,53	3125,10
406,99	3127,22
407,45	3116,80
407,91	3119,52
408,37	3118,10
408,83	3116,88
409,29	3133,60
409,76	3117,22
410,22	3128,40
410,68	3124,78
411,14	3132,20
411,60	3132,62
412,06	3130,05
412,52	3127,62
412,98	3143,90
413,44	3138,48
413,90	3146,00
414,36	3153,30
414,83	3147,92
415,29	3135,58
415,75	3150,48
416,21	3152,48
416,67	3166,70
417,13	3156,78
417,59	3158,52
418,05	3168,52
418,51	3162,20
418,97	3181,12
419,43	3173,52
419,89	3196,12
420,35	3185,78
420,81	3208,40
421,27	3200,98
421,73	3206,15
422,19	3227,92
422,65	3229,22
423,11	3251,52
423,57	3265,90
424,03	3284,58
424,49	3288,75
424,96	3318,12
425,42	3329,50
425,88	3349,32
426,34	3382,18
426,80	3396,48
427,26	3419,02
427,72	3452,25
428,18	3483,38
428,64	3524,82
429,10	3552,85
429,56	3602,70
430,02	3637,32
430,47	3698,42
430,93	3752,08
431,39	3814,50
431,85	3876,15
432,31	3947,95
432,77	4027,52
433,23	4117,50
433,69	4202,65
434,15	4306,40
434,61	4411,65
435,07	4532,18
435,53	4647,18
435,99	4791,48
436,45	4936,32
436,91	5100,32
437,37	5268,80
437,83	5461,88
438,29	5660,35
438,75	5873,72
439,21	6112,00
439,67	6370,92
440,12	6611,30
440,58	6915,32
441,04	7237,90
441,50	7568,40
441,96	7936,52
442,42	8311,42
442,88	8757,85
443,34	9188,45
443,80	9689,90
444,26	10199,42
444,72	10772,35
445,17	11355,35
445,63	11979,05
446,09	12684,95
446,55	13415,35
447,01	14201,60
447,47	15055,05
447,93	15963,08
448,39	16949,20
448,85	17971,50
449,30	19066,68
449,76	20269,15
450,22	21460,80
450,68	22791,68
451,14	24172,88
451,60	25632,62
452,06	27150,62
452,51	28786,82
452,97	30456,78
453,43	32232,28
453,89	33993,02
454,35	35818,22
454,81	37770,62
455,26	39714,72
455,72	41748,18
456,18	43696,60
456,64	45684,55
457,10	47643,28
457,56	49573,55
458,01	51433,90
458,47	53279,98
458,93	54957,40
459,39	56570,50
459,85	58047,72
460,30	59422,28
460,76	60539,45
461,22	61480,30
461,68	62040,35
462,14	62825,88
462,59	63283,10
463,05	63194,80
463,51	63202,70
463,97	63161,80
464,43	62501,02
464,88	61987,75
465,34	60786,12
465,80	60106,85
466,26	58870,48
466,71	57564,90
467,17	56086,60
467,63	54585,28
468,09	52999,48
468,54	51437,15
469,00	49726,88
469,46	48082,00
469,92	46400,15
470,37	44816,40
470,83	43222,62
471,29	41703,15
471,75	40243,98
472,20	38741,62
472,66	37391,72
473,12	36134,65
473,58	34897,62
474,03	33733,55
474,49	32676,22
474,95	31609,68
475,40	30674,25
475,86	29766,45
476,32	28888,65
476,78	28078,30
477,23	27322,00
477,69	26556,35
478,15	25765,90
478,60	25062,15
479,06	24327,38
479,52	23651,62
479,97	22962,15
480,43	22303,32
480,89	21613,12
481,34	20943,78
481,80	20304,18
482,26	19645,90
482,71	18983,45
483,17	18360,52
483,63	17750,25
484,08	17153,30
484,54	16558,25
485,00	16006,82
485,45	15438,82
485,91	14894,08
486,37	14409,52
486,82	13893,55
487,28	13411,98
487,74	12931,68
488,19	12505,62
488,65	12098,02
489,10	11692,65
489,56	11297,62
490,02	10958,35
490,47	10629,95
490,93	10300,02
491,39	10015,85
491,84	9728,78
492,30	9469,10
492,75	9222,42
493,21	8988,02
493,67	8752,65
494,12	8522,15
494,58	8324,22
495,03	8131,00
495,49	7957,70
495,95	7774,98
496,40	7604,40
496,86	7440,40
497,31	7290,02
497,77	7136,90
498,23	6986,70
498,68	6835,08
499,14	6711,10
499,59	6560,52
500,05	6438,78
500,50	6308,20
500,96	6201,42
501,41	6080,25
501,87	5960,58
502,33	5841,25
502,78	5737,52
503,24	5622,35
503,69	5521,70
504,15	5442,90
504,60	5334,45
505,06	5247,60
505,51	5178,50
505,97	5085,92
506,42	4996,65
506,88	4922,58
507,33	4833,98
507,79	4792,15
508,24	4714,15
508,70	4644,02
509,15	4581,82
509,61	4522,05
510,06	4475,60
510,52	4422,18
510,97	4359,95
511,43	4315,55
511,88	4278,22
512,34	4229,78
512,79	4190,10
513,25	4150,08
513,70	4108,82
514,16	4071,38
514,61	4050,05
515,07	4008,82
515,52	3976,75
515,98	3948,72
516,43	3912,28
516,89	3887,52
517,34	3851,20
517,80	3829,75
518,25	3808,68
518,70	3775,60
519,16	3767,15
519,61	3748,52
520,07	3704,38
520,52	3683,72
520,98	3666,60
521,43	3652,58
521,89	3617,92
522,34	3622,42
522,79	3603,52
523,25	3566,62
523,70	3556,75
524,16	3553,18
524,61	3534,40
525,06	3530,88
525,52	3499,25
525,97	3486,62
526,43	3494,22
526,88	3456,65
527,33	3440,22
527,79	3425,22
528,24	3416,70
528,70	3415,05
529,15	3405,90
529,60	3395,08
530,06	3379,95
530,51	3366,55
530,97	3371,92
531,42	3362,12
531,87	3345,72
532,33	3350,82
532,78	3335,75
533,23	3329,05
533,69	3326,08
534,14	3318,12
534,59	3301,35
535,05	3299,38
535,50	3292,65
535,96	3294,52
536,41	3287,68
536,86	3278,95
537,32	3268,68
537,77	3274,05
538,22	3269,68
538,68	3253,30
539,13	3261,75
539,58	3254,95
540,03	3247,60
540,49	3246,08
540,94	3245,90
541,39	3237,42
541,85	3228,30
542,30	3231,50
542,75	3222,28
543,21	3224,52
543,66	3221,10
544,11	3222,82
544,57	3209,72
545,02	3218,72
545,47	3208,28
545,92	3204,65
546,38	3218,02
546,83	3208,18
547,28	3238,25
547,73	3192,22
548,19	3206,58
548,64	3198,42
549,09	3187,02
549,55	3193,15
550,00	3193,18
550,45	3184,35
550,90	3202,98
551,36	3176,78
551,81	3195,78
552,26	3188,20
552,71	3179,15
553,17	3177,28
553,62	3180,95
554,07	3175,50
554,52	3178,10
554,97	3176,58
555,43	3173,22
555,88	3173,18
556,33	3165,22
556,78	3165,65
557,24	3180,82
557,69	3164,58
558,14	3156,95
558,59	3167,00
559,04	3163,15
559,50	3178,15
559,95	3164,38
560,40	3157,12
560,85	3166,18
561,30	3156,58
561,76	3155,38
562,21	3160,85
562,66	3158,75
563,11	3171,12
563,56	3155,55
564,01	3163,80
564,47	3146,50
564,92	3154,20
565,37	3168,95
565,82	3149,52
566,27	3151,30
566,72	3148,42
567,18	3148,92
567,63	3145,08
568,08	3151,42
568,53	3145,85
568,98	3147,65
569,43	3145,80
569,88	3144,75
570,34	3149,70
570,79	3152,35
571,24	3141,15
571,69	3147,45
572,14	3145,32
572,59	3146,12
573,04	3142,78
573,49	3152,82
573,94	3145,10
574,40	3136,25
574,85	3143,75
575,30	3150,45
575,75	3139,82
576,20	3142,62
576,65	3145,65
577,10	3141,20
577,55	3142,18
578,00	3145,15
578,45	3145,32
578,91	3138,80
579,36	3143,15
579,81	3143,00
580,26	3134,65
580,71	3135,85
581,16	3138,70
581,61	3146,90
582,06	3142,32
582,51	3127,40
582,96	3139,58
583,41	3125,22
583,86	3142,52
584,31	3133,92
584,76	3134,22
585,21	3128,55
585,66	3142,28
586,11	3134,92
586,56	3129,52
587,01	3136,60
587,46	3134,25
587,92	3132,78
588,37	3134,60
588,82	3134,02
589,27	3133,20
589,72	3127,18
590,17	3132,40
590,62	3133,58
591,07	3128,22
591,52	3134,65
591,97	3127,12
592,42	3150,62
592,87	3127,25
593,32	3124,72
593,77	3129,02
594,22	3128,15
594,67	3134,98
595,12	3124,72
595,56	3132,88
596,01	3127,00
596,46	3122,35
596,91	3130,68
597,36	3136,12
597,81	3124,18
598,26	3122,12
598,71	3137,80
599,16	3124,98
599,61	3130,55
600,06	3125,98
600,51	3131,15
600,96	3126,15
601,41	3126,20
601,86	3133,90
602,31	3124,68
602,76	3123,92
603,21	3135,68
603,66	3130,92
604,11	3133,72
604,55	3125,82
605,00	3117,50
605,45	3123,80
605,90	3133,52
606,35	3122,42
606,80	3128,15
607,25	3132,92
607,70	3128,42
608,15	3133,72
608,60	3116,32
609,04	3145,00
609,49	3121,45
609,94	3125,22
610,39	3115,42
610,84	3115,72
611,29	3126,95
611,74	3121,92
612,19	3125,82
612,64	3124,72
613,08	3115,12
613,53	3122,52
613,98	3120,30
614,43	3123,58
614,88	3127,18
615,33	3121,05
615,78	3139,78
616,22	3126,18
616,67	3120,80
617,12	3119,45
617,57	3122,92
618,02	3112,10
618,47	3131,58
618,91	3124,58
619,36	3122,85
619,81	3141,30
620,26	3111,88
620,71	3114,08
621,16	3111,88
621,60	3112,50
622,05	3119,75
622,50	3120,25
622,95	3111,25
623,40	3119,32
623,84	3119,75
624,29	3125,25
624,74	3117,62
625,19	3117,18
625,64	3118,32
626,08	3123,58
626,53	3115,95
626,98	3123,65
627,43	3128,55
627,87	3120,92
628,32	3123,82
628,77	3126,35
629,22	3128,82
629,66	3117,12
630,11	3115,65
630,56	3128,35
631,01	3111,60
631,46	3117,28
631,90	3121,92
632,35	3114,22
632,80	3118,00
633,25	3119,40
633,69	3114,12
634,14	3122,90
634,59	3122,52
635,03	3109,70
635,48	3117,18
635,93	3118,25
636,38	3113,02
636,82	3123,35
637,27	3116,65
637,72	3122,35
638,16	3121,50
638,61	3128,55
639,06	3114,12
639,51	3115,80
639,95	3112,18
640,40	3116,00
640,85	3110,18
641,29	3116,52
641,74	3113,22
642,19	3110,35
642,63	3116,25
643,08	3114,42
643,53	3112,15
643,97	3120,52
644,42	3119,12
644,87	3115,90
645,31	3115,75
645,76	3110,78
646,21	3108,08
646,65	3119,38
647,10	3123,58
647,55	3108,58
647,99	3111,70
648,44	3114,15
648,89	3107,82
649,33	3110,98
649,78	3119,42
650,23	3113,40
650,67	3107,98
651,12	3113,30
651,56	3108,70
652,01	3117,38
652,46	3116,52
652,90	3117,75
653,35	3118,85
653,80	3115,92
654,24	3117,78
654,69	3109,20
655,13	3121,92
655,58	3120,00
656,03	3145,28
656,47	3110,08
656,92	3108,35
657,36	3108,95
657,81	3114,88
658,26	3106,68
658,70	3113,22
659,15	3113,05
659,59	3110,10
660,04	3116,10
660,48	3115,35
660,93	3111,12
661,38	3109,98
661,82	3118,42
662,27	3109,08
662,71	3112,18
663,16	3115,75
663,60	3118,90
664,05	3110,30
664,49	3114,95
664,94	3110,22
665,38	3142,05
665,83	3107,68
666,28	3120,78
666,72	3112,40
667,17	3108,38
667,61	3110,40
668,06	3105,40
668,50	3105,75
668,95	3118,00
669,39	3109,32
669,84	3111,08
670,28	3110,82
670,73	3107,32
671,17	3110,92
671,62	3106,50
672,06	3114,48
672,51	3115,12
672,95	3132,88
673,40	3122,08
673,84	3107,00
674,29	3111,88
674,73	3108,00
675,18	3126,25
675,62	3102,52
676,07	3105,12
676,51	3119,50
676,95	3111,15
677,40	3120,95
677,84	3128,50
678,29	3114,32
678,73	3112,65
679,18	3117,48
679,62	3136,00
680,07	3115,75
680,51	3118,92
680,96	3104,35
681,40	3104,08
681,84	3110,32
682,29	3111,22
682,73	3111,28
683,18	3109,92
683,62	3132,12
684,07	3107,88
684,51	3107,90
684,95	3114,00
685,40	3109,38
685,84	3112,38
686,29	3111,75
686,73	3100,50
687,17	3099,42
687,62	3109,62
688,06	3113,90
688,51	3116,60
688,95	3113,92
689,39	3113,92
689,84	3122,92
690,28	3113,35
690,73	3114,05
691,17	3113,85
691,61	3108,48
692,06	3108,08
692,50	3114,58
692,94	3111,22
693,39	3111,38
693,83	3108,72
694,27	3131,85
694,72	3114,62
695,16	3101,28
695,60	3111,45
696,05	3108,62
696,49	3106,45
696,94	3111,75
697,38	3103,10
697,82	3108,30
698,27	3110,18
698,71	3113,72
699,15	3113,02
699,59	3109,15
700,04	3109,98
700,48	3142,70
700,92	3111,75
701,37	3110,18
701,81	3124,50
702,25	3107,65
702,70	3106,00
703,14	3112,82
703,58	3103,92
704,03	3117,42
704,47	3115,40
704,91	3105,38
705,35	3107,50
705,80	3116,40
706,24	3115,75
706,68	3136,12
707,13	3102,78
707,57	3118,42
708,01	3105,78
708,45	3105,18
708,90	3109,75
709,34	3109,70
709,78	3108,20
710,22	3119,50
710,67	3117,82
711,11	3116,10
711,55	3103,10
711,99	3113,12
712,44	3113,10
712,88	3107,82
713,32	3111,58
713,76	3114,28
714,21	3108,45
714,65	3107,85
715,09	3112,18
715,53	3110,38
715,97	3104,78
716,42	3113,65
716,86	3111,10
717,30	3111,58
717,74	3104,92
718,18	3123,92
718,63	3109,78
719,07	3111,45
719,51	3121,10
719,95	3116,22
720,39	3108,48
720,84	3109,60
721,28	3106,82
721,72	3105,45
722,16	3101,08
722,60	3100,72
723,04	3113,18
723,49	3121,62
723,93	3103,35
724,37	3102,32
724,81	3110,05
725,25	3108,92
725,69	3105,25
726,14	3111,78
726,58	3107,52
727,02	3111,15
727,46	3107,42
727,90	3102,90
728,34	3100,40
728,78	3111,78
729,23	3099,72
729,67	3113,15
730,11	3101,18
730,55	3109,68
730,99	3108,25
731,43	3109,12
731,87	3120,25
732,31	3102,65
732,76	3116,35
733,20	3113,45
733,64	3106,58
734,08	3115,05
734,52	3103,60
734,96	3114,92
735,40	3103,42
735,84	3110,00
736,28	3112,75
736,72	3109,20
737,16	3110,52
737,61	3103,20
738,05	3113,92
738,49	3109,98
738,93	3106,62
739,37	3112,58
739,81	3111,18
740,25	3107,55
740,69	3128,20
741,13	3101,45
741,57	3109,72
742,01	3116,12
742,45	3111,88
742,89	3108,48
743,33	3104,78
743,77	3108,90
744,21	3101,22
744,65	3115,05
745,09	3112,28
745,53	3101,12
745,98	3111,72
746,42	3109,82
746,86	3108,28
747,30	3108,42
747,74	3102,02
748,18	3103,08
748,62	3107,60
749,06	3116,38
749,50	3114,78
749,94	3109,10
750,38	3115,95
750,82	3119,20
751,26	3096,35
751,70	3102,85
752,14	3101,65
752,58	3112,20
753,02	3105,68
753,45	3106,50
753,89	3108,15
754,33	3129,10
754,77	3106,85
755,21	3107,58
755,65	3099,85
756,09	3103,00
756,53	3104,85
756,97	3105,58
757,41	3121,55
757,85	3103,20
758,29	3107,38
758,73	3101,75
759,17	3103,58
759,61	3100,92
760,05	3106,42
760,49	3110,98
760,93	3116,85
761,37	3103,72
761,80	3117,08
762,24	3105,68
762,68	3106,80
763,12	3104,40
763,56	3105,32
764,00	3101,92
764,44	3106,00
764,88	3109,72
765,32	3104,88
765,76	3111,78
766,20	3116,38
766,63	3106,82
767,07	3099,62
767,51	3104,50
767,95	3113,22
768,39	3110,30
768,83	3097,50
769,27	3103,35
769,71	3110,55
770,14	3102,92
770,58	3099,02
771,02	3104,58
771,46	3106,60
771,90	3106,42
772,34	3105,95
772,78	3112,42
773,21	3106,65
773,65	3121,32
774,09	3101,90
774,53	3109,12
774,97	3102,48
775,41	3102,48
775,84	3109,20
776,28	3110,55
776,72	3110,05
777,16	3101,12
777,60	3104,40
778,04	3104,80
778,47	3094,92
778,91	3105,38
779,35	3099,90
779,79	3110,48
780,23	3108,72
780,66	3099,60
781,10	3102,95
781,54	3105,45
781,98	3108,50
782,42	3109,42
782,85	3102,18
783,29	3108,28
783,73	3128,50
784,17	3117,72
784,61	3106,30
785,04	3112,85
785,48	3111,65
785,92	3100,62
786,36	3106,52
786,79	3100,28
787,23	3104,78
787,67	3109,12
788,11	3113,22
788,54	3106,95
788,98	3103,35
789,42	3103,82
789,86	3101,18
790,29	3112,70
790,73	3111,88
791,17	3114,28
791,60	3100,75
792,04	3103,50
792,48	3110,65
792,92	3099,88
793,35	3105,05
793,79	3104,58
794,23	3105,72
794,67	3098,52
795,10	3101,55
795,54	3112,10
795,98	3106,35
796,41	3106,48
796,85	3103,68
797,29	3134,75
797,72	3115,30
798,16	3103,22
798,60	3109,38
799,03	3105,00
799,47	3101,22
799,91	3106,40
800,34	3106,12
800,78	3106,35
801,22	3103,00
801,65	3097,82
802,09	3104,02
802,53	3112,70
802,96	3105,90
803,40	3099,50
803,84	3117,78
804,27	3106,50
804,71	3101,62
805,15	3108,70
805,58	3105,08
806,02	3101,38
806,46	3113,35
806,89	3116,48
807,33	3110,60
807,76	3107,90
808,20	3103,60
808,64	3104,65
809,07	3115,38
809,51	3119,60
809,95	3119,00
810,38	3112,12
810,82	3121,28
811,25	3103,22
811,69	3105,28
812,13	3100,85
812,56	3109,28
813,00	3105,10
813,43	3099,15
813,87	3100,50
814,30	3107,68
814,74	3114,92
815,18	3131,08
815,61	3102,80
816,05	3101,80
816,48	3110,82
816,92	3118,50
817,35	3111,32
817,79	3105,92
818,23	3110,12
818,66	3108,15
819,10	3107,92
819,53	3102,00
819,97	3099,65
820,40	3102,75
820,84	3109,40
821,27	3107,58
821,71	3112,48
822,14	3103,08
822,58	3108,10
823,01	3111,65
823,45	3102,28
823,88	3106,78
824,32	3102,35
824,75	3104,40
825,19	3101,95
825,63	3114,80
826,06	3097,58
826,50	3104,02
826,93	3107,00
827,37	3098,52
827,80	3106,35
828,23	3102,12
828,67	3106,62
829,10	3108,48
829,54	3101,28
829,97	3103,32
830,41	3092,82
830,84	3105,32
831,28	3107,98
831,71	3110,72
832,15	3100,20
832,58	3110,78
833,02	3105,95
833,45	3102,15
833,89	3116,70
834,32	3104,68
834,75	3123,45
835,19	3111,25
835,62	3107,40
836,06	3098,02
836,49	3104,20
836,93	3102,88
837,36	3110,02
837,79	3107,00
838,23	3102,98
838,66	3100,85
839,10	3110,42
839,53	3101,68
839,97	3104,10
840,40	3103,92
840,83	3111,68
841,27	3100,72
841,70	3100,18
842,14	3108,50
842,57	3102,58
843,00	3115,92
843,44	3119,55
843,87	3107,42
844,31	3112,95
844,74	3095,20
845,17	3098,90
845,61	3098,78
846,04	3101,52
846,47	3108,68
846,91	3104,60
847,34	3107,38
847,77	3104,42
848,21	3100,45
848,64	3107,12
849,08	3101,35
849,51	3110,92
849,94	3099,82
850,38	3099,22
850,81	3103,52
851,24	3099,08
851,68	3101,78
852,11	3101,42
852,54	3108,32
852,98	3111,62
853,41	3109,60
853,84	3104,68
854,28	3112,12
854,71	3099,22
855,14	3108,35
855,57	3111,05
856,01	3100,32
856,44	3099,38
856,87	3109,28
857,31	3098,00
857,74	3108,72
858,17	3098,05
858,61	3100,95
859,04	3110,82
859,47	3114,18
859,90	3101,32
860,34	3106,35
860,77	3102,68
861,20	3099,20
861,63	3110,90
862,07	3092,95
862,50	3099,90
862,93	3102,38
863,37	3103,00
863,80	3102,00
864,23	3108,85
864,66	3096,48
865,10	3103,75
865,53	3105,80
865,96	3098,22
866,39	3102,42
866,82	3108,92
867,26	3099,10
867,69	3103,50
868,12	3104,80
868,55	3096,02
868,99	3102,20
869,42	3093,02
869,85	3109,55
870,28	3096,12
870,71	3103,62
871,15	3103,60
871,58	3100,00
872,01	3107,20
872,44	3102,10
872,87	3112,98
873,31	3121,42
873,74	3096,05
874,17	3102,65
874,60	3101,95
875,03	3099,20
875,47	3104,25
875,90	3106,75
876,33	3100,18
876,76	3110,50
877,19	3106,42
877,62	3100,50
878,06	3098,28
878,49	3108,08
878,92	3092,15
879,35	3108,85
879,78	3102,38
880,21	3101,85
880,64	3101,15
881,08	3099,30
881,51	3104,90
881,94	3103,25
882,37	3115,68
882,80	3098,40
883,23	3096,60
883,66	3100,45
884,09	3104,62
884,53	3108,50
884,96	3102,90
885,39	3101,05
885,82	3101,72
886,25	3101,48
886,68	3096,50
887,11	3105,68
887,54	3102,65
887,97	3104,22
888,40	3106,48
888,84	3100,55
889,27	3098,12
889,70	3113,78
890,13	3096,25
890,56	3098,82
890,99	3103,12
891,42	3097,28
891,85	3128,78
892,28	3095,60
892,71	3109,55
893,14	3097,95
893,57	3106,28
894,00	3107,48
894,43	3094,45
894,86	3099,78
895,29	3099,18
895,73	3095,90
896,16	3101,10
896,59	3104,18
897,02	3099,92
897,45	3108,05
897,88	3099,32
898,31	3097,35
898,74	3102,25
899,17	3107,48
899,60	3098,92
900,03	3097,32
900,46	3095,82
900,89	3103,38
901,32	3110,10
901,75	3099,02
902,18	3095,78
902,61	3097,00
903,04	3107,52
903,47	3105,82
903,90	3099,68
904,33	3116,70
904,76	3117,52
905,19	3099,22
905,62	3099,92
906,05	3114,98
906,48	3097,42
906,91	3102,88
907,34	3100,58
907,76	3104,05
908,19	3094,25
908,62	3110,10
909,05	3102,30
909,48	3109,70
909,91	3104,15
910,34	3101,35
910,77	3106,20
911,20	3113,62
911,63	3099,08
912,06	3093,25
912,49	3103,60
912,92	3103,20
913,35	3102,15
913,78	3097,60
914,21	3103,32
914,63	3102,98
915,06	3099,32
915,49	3106,02
915,92	3104,62
916,35	3100,08
916,78	3093,50
917,21	3095,02
917,64	3100,22
918,07	3095,85
918,50	3104,42
918,92	3101,22
919,35	3112,30
919,78	3100,60
920,21	3106,50
920,64	3097,72
921,07	3101,32
921,50	3100,60
921,93	3106,95
922,35	3108,62
922,78	3100,95
923,21	3116,05
923,64	3104,25
924,07	3100,10
924,50	3095,42
924,92	3095,50
925,35	3102,50
925,78	3113,48
926,21	3105,55
926,64	3093,60
927,07	3107,15
927,49	3097,00
927,92	3107,70
928,35	3116,75
928,78	3101,02
929,21	3106,00
929,64	3096,40
930,06	3118,52
930,49	3100,75
930,92	3095,92
931,35	3109,52
931,78	3098,32
932,20	3102,70
932,63	3108,98
933,06	3100,18
933,49	3104,75
933,92	3091,08
934,34	3117,00
934,77	3109,58
935,20	3121,20
935,63	3101,05
936,05	3110,58
936,48	3108,65
936,91	3105,98
937,34	3104,48
937,76	3094,05
938,19	3097,30
938,62	3097,90
939,05	3104,92
939,47	3097,22
939,90	3105,08
940,33	3099,48
940,76	3099,72
941,18	3104,80
941,61	3097,42
942,04	3100,50
942,47	3109,05
942,89	3116,68
943,32	3100,28
943,75	3108,02
944,17	3097,92
944,60	3097,88
945,03	3106,52
945,46	3092,58
945,88	3094,88
946,31	3107,42
946,74	3099,00
947,16	3104,10
947,59	3101,00
948,02	3102,02
948,44	3102,78
948,87	3109,95
949,30	3097,18
949,72	3102,12
950,15	3107,40
950,58	3093,10
951,00	3095,08
951,43	3096,95
951,86	3121,60
952,28	3111,10
952,71	3097,22
953,14	3099,82
953,56	3103,42
953,99	3094,52
954,42	3108,88
954,84	3101,32
955,27	3112,58
955,70	3096,90
956,12	3095,75
956,55	3099,90
956,98	3100,02
957,40	3097,90
957,83	3104,00
958,25	3094,25
958,68	3104,48
959,11	3125,58
959,53	3094,50
959,96	3104,25
960,38	3101,25
960,81	3098,48
961,24	3095,28
961,66	3097,72
962,09	3091,58
962,51	3099,80
962,94	3107,20
963,37	3105,10
963,79	3105,15
964,22	3106,65
964,64	3098,20
965,07	3101,75
965,49	3098,88
965,92	3099,58
966,35	3099,48
966,77	3099,02
967,20	3106,68
967,62	3097,28
968,05	3099,50
968,47	3103,88
968,90	3097,90
969,32	3098,75
969,75	3108,30
970,17	3132,40
970,60	3104,08
971,03	3100,72
971,45	3104,30
971,88	3096,98
972,30	3098,20
972,73	3104,78
973,15	3096,08
973,58	3102,80
974,00	3093,80
974,43	3096,10
974,85	3098,55
975,28	3103,92
975,70	3100,65
976,13	3102,92
976,55	3102,18
976,98	3097,65
977,40	3096,82
977,83	3098,30
978,25	3103,55
978,68	3095,70
979,10	3107,32
979,53	3103,38
979,95	3100,15
980,37	3099,42
980,80	3096,95
981,22	3109,08
981,65	3105,18
982,07	3098,25
982,50	3103,65
982,92	3105,98
983,35	3100,85
983,77	3100,10
984,20	3099,45
984,62	3099,42
985,04	3097,40
985,47	3106,58
985,89	3107,55
986,32	3096,95
986,74	3091,78
987,17	3098,45
987,59	3105,52
988,01	3098,82
988,44	3096,02
988,86	3102,70
989,29	3100,35
989,71	3099,98
990,13	3098,78
990,56	3104,02
990,98	3101,95
991,41	3096,78
991,83	3101,80
992,25	3102,90
992,68	3101,20
993,10	3111,40
993,53	3098,22
993,95	3093,20
994,37	3097,68
994,80	3098,02
995,22	3097,62
995,64	3104,10
996,07	3107,18
996,49	3101,72
996,91	3102,08
997,34	3094,65
997,76	3094,32
998,18	3093,18
998,61	3108,65
999,03	3106,85
999,45	3099,42
999,88	3101,05
1000,30	3094,75
1000,72	3112,10
1001,15	3100,25
1001,57	3102,22
1001,99	3107,20
1002,42	3097,02
1002,84	3099,70
1003,26	3104,70
1003,69	3098,92
1004,11	3102,98
1004,53	3101,52
1004,96	3104,28
1005,38	3095,20
1005,80	3105,42
1006,22	3104,92
1006,65	3109,35
1007,07	3101,15
1007,49	3094,72
1007,92	3105,45
1008,34	3098,72
1008,76	3094,95
1009,18	3095,22
1009,61	3099,55
1010,03	3098,10
1010,45	3126,78
1010,87	3107,68
1011,30	3106,50
1011,72	3104,05
1012,14	3103,98
1012,56	3106,75
1012,99	3099,80
1013,41	3104,22
1013,83	3106,55
1014,25	3103,60
1014,68	3102,60
1015,10	3097,00
1015,52	3110,35
1015,94	3094,32
1016,37	3107,58
1016,79	3098,68
1017,21	3105,32
1017,63	3096,48
1018,05	3103,02
1018,48	3099,00
1018,90	3100,30
1019,32	3101,58
1019,74	3091,52
1020,16	3121,22
1020,59	3108,75
1021,01	3104,42
1021,43	3099,25
1021,85	3100,58
1022,27	3102,88
1022,69	3103,45
1023,12	3104,15
1023,54	3101,12
1023,96	3125,38
1024,38	3108,68
1024,80	3106,82
1025,22	3106,45
1025,65	3103,88
1026,07	3105,00
1026,49	3108,25
1026,91	3098,12
1027,33	3095,98
1027,75	3117,05
1028,17	3105,20
1028,60	3102,72
1029,02	3101,38
1029,44	3103,15
1029,86	3097,35
1030,28	3118,25
1030,70	3103,15
1031,12	3100,12
1031,54	3105,55
1031,97	3111,82
1032,39	3098,05
1032,81	3100,85
1033,23	3106,98
1033,65	3101,80
1034,07	3106,45
1034,49	3096,60
1034,91	3096,88
1035,33	3107,00
1035,75	3107,92
1036,18	3097,88
1036,60	3112,38
1037,02	3097,60
1037,44	3098,72
1037,86	3102,08
1038,28	3094,65
1038,70	3105,05
1039,12	3107,90
1039,54	3105,25
1039,96	3109,60
1040,38	3111,45
1040,80	3101,58
1041,22	3100,58
1041,64	3104,48
1042,06	3101,08
1042,48	3109,28
1042,90	3110,78
1043,32	3105,35
1043,74	3110,05
1044,17	3100,45
1044,59	3108,10
1045,01	3097,72
1045,43	3102,00
1045,85	3099,58
1046,27	3095,22
1046,69	3103,22
1047,11	3108,02
1047,53	3097,02
1047,95	3102,72
1048,37	3107,28
1048,79	3095,40
1049,21	3109,18
1049,63	3106,48
1050,05	3108,58
1050,47	3100,98
1050,89	3100,92
1051,31	3103,75
1051,72	3106,25
1052,14	3110,28
1052,56	3109,32
1052,98	3102,60
1053,40	3107,00
1053,82	3091,32
1054,24	3099,95
1054,66	3093,60
1055,08	3100,22
1055,50	3098,40
1055,92	3102,92
1056,34	3106,30
1056,76	3117,52
1057,18	3110,28
1057,60	3107,15
1058,02	3102,08
1058,44	3130,58
1058,86	3096,12
1059,28	3106,95
1059,69	3108,30
1060,11	3103,75
1060,53	3100,50
1060,95	3097,22
1061,37	3108,82
1061,79	3103,65
1062,21	3099,32
1062,63	3107,32
1063,05	3114,15
1063,47	3102,32
1063,88	3101,52
1064,30	3099,22
1064,72	3109,50
1065,14	3110,10
1065,56	3099,52
1065,98	3096,35
1066,40	3094,50
1066,82	3108,08
1067,23	3105,22
1067,65	3103,02
1068,07	3104,18
1068,49	3099,92
1068,91	3113,35
1069,33	3105,35
1069,75	3100,02
1070,16	3094,72
1070,58	3108,90
1071,00	3109,20
1071,42	3110,40
1071,84	3101,28
1072,26	3106,05
1072,67	3102,10
1073,09	3096,62
1073,51	3094,22
1073,93	3105,58
1074,35	3099,05
1074,77	3096,90
1075,18	3097,75
1075,60	3102,05
1076,02	3104,42
1076,44	3097,08
1076,86	3098,00
1077,27	3102,40
1077,69	3109,98
1078,11	3100,65
1078,53	3107,10
1078,94	3113,55
1079,36	3092,72
1079,78	3104,35
1080,20	3098,75
1080,62	3103,30
1081,03	3106,58
1081,45	3101,85
1081,87	3098,70
1082,29	3104,50
1082,70	3104,12
1083,12	3101,28
1083,54	3101,48
1083,96	3101,35
1084,37	3108,68
1084,79	3101,02
1085,21	3099,72
1085,63	3109,98
1086,04	3097,15
1086,46	3099,80
1086,88	3103,58
1087,30	3094,38
1087,71	3106,72
1088,13	3458,88
1088,55	3099,28
1088,96	3097,05
1089,38	3103,40
1089,80	3097,32
1090,22	3109,28
1090,63	3101,80
1091,05	3095,98
1091,47	3106,60
1091,88	3101,60
1092,30	3097,65
1092,72	3101,92
1093,13	3099,80
1093,55	3101,52
1093,97	3098,85
1094,38	3102,42
1094,80	3101,22
1095,22	3102,08
1095,63	3099,38
1096,05	3100,02
1096,47	3107,62
1096,88	3095,95
1097,30	3104,90
1097,72	3099,70
1098,13	3103,78
1098,55	3106,22
1098,97	3110,45
1099,38	3099,58
1099,80	3099,70
1100,21	3099,05
1100,63	3099,68
1101,05	3097,20
1101,46	3103,78
1101,88	3095,22
1102,30	3098,75
1102,71	3101,82
1103,13	3103,08
1103,54	3103,25
1103,96	3098,78
1104,38	3112,72
1104,79	3089,68
1105,21	3101,70
1105,62	3099,28
1106,04	3095,72
1106,46	3100,95
1106,87	3089,78
1107,29	3094,20
1107,70	3107,78
1108,12	3094,00
1108,54	3103,98
1108,95	3104,58
1109,37	3102,92
1109,78	3089,85
1110,20	3098,35
1110,61	3090,12
1111,03	3090,12
1111,44	3090,12
1111,86	3090,12
1112,28	3090,12
1112,69	3090,12
1113,11	3090,12
1113,52	3090,12
1113,94	3090,12
1114,35	3090,12
1114,77	3090,12
1115,18	3090,12
1115,60	3090,12
1116,01	3090,12
1116,43	3090,12
1116,84	3090,12
1117,26	3090,12
1117,67	3090,12
1118,09	3090,12
1118,50	3090,12
1118,92	3090,12
>>>>>End Processed Spectral Data<<<<<
