SpectraSuite Data File
++++++++++++++++++++++++++++++++++++
Date: Tue Jul 12 15:25:29 EEST 2011
User: OO Maya
Dark Spectrum Present: No
Reference Spectrum Present: No
Number of Sampled Component Spectra: 1
Spectrometers: MAYP11278
Integration Time (usec): 180000 (MAYP11278)
Spectra Averaged: 40 (MAYP11278)
Boxcar Smoothing: 0 (MAYP11278)
Correct for Electrical Dark: No (MAYP11278)
Strobe/Lamp Enabled: No (MAYP11278)
Correct for Detector Non-linearity: No (MAYP11278)
Correct for Stray Light: No (MAYP11278)
Number of Pixels in Processed Spectrum: 2068
>>>>>Begin Processed Spectral Data<<<<<
200,00	3259,28
200,47	2988,35
200,95	2988,50
201,42	2985,25
201,89	3275,50
202,37	3286,85
202,84	3278,30
203,31	3283,42
203,79	3299,35
204,26	3281,35
204,73	3270,48
205,20	3265,72
205,68	3283,82
206,15	3279,82
206,62	3294,85
207,10	3279,12
207,57	3300,25
208,04	3276,60
208,51	3280,22
208,99	3334,50
209,46	3282,38
209,93	3269,35
210,41	3275,42
210,88	3271,85
211,35	3291,80
211,82	3298,42
212,30	3277,88
212,77	3282,55
213,24	3304,65
213,71	3300,52
214,19	3297,25
214,66	3271,85
215,13	3294,98
215,60	3270,42
216,08	3303,88
216,55	3310,10
217,02	3284,05
217,49	3275,05
217,96	3315,05
218,44	3277,20
218,91	3297,15
219,38	3340,60
219,85	3288,72
220,33	3296,95
220,80	3287,70
221,27	3303,98
221,74	3301,12
222,21	3287,68
222,69	3286,28
223,16	3297,28
223,63	3290,08
224,10	3277,78
224,57	3327,60
225,04	3297,78
225,52	3281,75
225,99	3328,60
226,46	3297,62
226,93	3316,48
227,40	3300,00
227,87	3304,32
228,35	3303,75
228,82	3299,10
229,29	3282,35
229,76	3285,40
230,23	3311,50
230,70	3268,18
231,18	3277,10
231,65	3283,00
232,12	3293,52
232,59	3317,80
233,06	3282,32
233,53	3310,75
234,00	3278,90
234,48	3307,22
234,95	3284,75
235,42	3308,90
235,89	3296,38
236,36	3283,78
236,83	3279,88
237,30	3292,08
237,77	3282,12
238,24	3292,38
238,72	3309,62
239,19	3290,00
239,66	3304,32
240,13	3306,75
240,60	3307,90
241,07	3292,80
241,54	3296,90
242,01	3282,98
242,48	3309,40
242,95	3317,98
243,42	3298,70
243,90	3296,80
244,37	3279,50
244,84	3297,92
245,31	3299,82
245,78	3360,72
246,25	3299,90
246,72	3285,18
247,19	3283,40
247,66	3278,15
248,13	3311,60
248,60	3333,78
249,07	3287,72
249,54	3302,75
250,01	3294,50
250,48	3294,52
250,95	3294,08
251,42	3271,12
251,89	3308,28
252,36	3318,55
252,83	3294,10
253,30	3293,95
253,77	3312,20
254,24	3319,65
254,71	3279,65
255,18	3279,85
255,65	3311,40
256,12	3326,88
256,59	3298,35
257,06	3321,60
257,53	3316,32
258,00	3282,80
258,47	3298,42
258,94	3296,82
259,41	3300,92
259,88	3305,70
260,35	3271,62
260,82	3296,70
261,29	3311,82
261,76	3304,78
262,23	3322,90
262,70	3296,70
263,17	3336,18
263,64	3322,42
264,11	3282,70
264,58	3318,90
265,05	3301,68
265,52	3292,85
265,99	3302,32
266,46	3306,92
266,93	3309,45
267,40	3290,38
267,87	3303,02
268,34	3307,85
268,81	3313,80
269,28	3357,98
269,74	3303,45
270,21	3291,22
270,68	3306,18
271,15	3310,10
271,62	3331,65
272,09	3289,90
272,56	3283,82
273,03	3326,28
273,50	3283,45
273,97	3305,10
274,44	3300,35
274,90	3276,80
275,37	3315,00
275,84	3319,22
276,31	3291,38
276,78	3300,38
277,25	3309,40
277,72	3315,55
278,19	3290,35
278,66	3293,12
279,12	3301,25
279,59	3304,92
280,06	3268,30
280,53	3284,72
281,00	3291,32
281,47	3312,02
281,94	3320,98
282,40	3293,65
282,87	3301,02
283,34	3276,28
283,81	3283,88
284,28	3264,82
284,75	3299,82
285,21	3366,48
285,68	3316,38
286,15	3312,10
286,62	3285,78
287,09	3290,98
287,56	3311,68
288,02	3313,42
288,49	3281,35
288,96	3292,35
289,43	3277,90
289,90	3378,60
290,36	3294,20
290,83	3285,52
291,30	3375,55
291,77	3317,00
292,24	3357,70
292,70	3290,20
293,17	3317,92
293,64	3293,38
294,11	3294,98
294,58	3310,52
295,04	3293,08
295,51	3279,65
295,98	3313,22
296,45	3293,88
296,91	3306,55
297,38	3306,48
297,85	3276,80
298,32	3305,18
298,79	3332,15
299,25	3290,85
299,72	3311,58
300,19	3268,12
300,66	3328,52
301,12	3284,15
301,59	3303,85
302,06	3294,58
302,52	3314,80
302,99	3346,60
303,46	3290,55
303,93	3324,10
304,39	3290,75
304,86	3312,80
305,33	3308,62
305,80	3286,40
306,26	3303,18
306,73	3305,45
307,20	3335,10
307,66	3332,88
308,13	3312,30
308,60	3306,30
309,07	3313,42
309,53	3292,02
310,00	3333,45
310,47	3297,82
310,93	3311,55
311,40	3289,15
311,87	3321,68
312,33	3316,75
312,80	3324,28
313,27	3285,82
313,73	3316,80
314,20	3318,90
314,67	3285,68
315,13	3294,62
315,60	3286,00
316,07	3302,18
316,53	3307,30
317,00	3307,35
317,47	3317,25
317,93	3290,60
318,40	3291,65
318,87	3304,88
319,33	3294,40
319,80	3318,52
320,26	3319,50
320,73	3311,02
321,20	3314,20
321,66	3311,28
322,13	3295,60
322,60	3320,18
323,06	3303,72
323,53	3341,78
323,99	3296,32
324,46	3298,48
324,93	3306,32
325,39	3291,95
325,86	3287,85
326,32	3319,52
326,79	3311,45
327,26	3307,58
327,72	3313,18
328,19	3307,10
328,65	3362,65
329,12	3304,35
329,59	3301,28
330,05	3281,35
330,52	3308,42
330,98	3342,00
331,45	3317,10
331,91	3299,48
332,38	3274,75
332,85	3280,90
333,31	3339,60
333,78	3294,50
334,24	3310,58
334,71	3281,65
335,17	3307,60
335,64	3299,08
336,10	3296,52
336,57	3297,92
337,03	3295,55
337,50	3312,55
337,96	3311,95
338,43	3310,98
338,90	3309,78
339,36	3294,68
339,83	3302,92
340,29	3296,68
340,76	3288,20
341,22	3312,48
341,69	3311,78
342,15	3341,80
342,62	3288,02
343,08	3342,18
343,55	3314,38
344,01	3309,22
344,48	3326,28
344,94	3310,08
345,41	3310,95
345,87	3377,45
346,34	3282,52
346,80	3303,50
347,27	3295,12
347,73	3310,50
348,19	3295,30
348,66	3298,02
349,12	3340,58
349,59	3319,65
350,05	3284,22
350,52	3291,08
350,98	3287,32
351,45	3312,52
351,91	3322,30
352,38	3295,55
352,84	3310,48
353,30	3317,05
353,77	3310,95
354,23	3300,48
354,70	3303,48
355,16	3288,62
355,63	3303,15
356,09	3317,92
356,55	3294,62
357,02	3292,92
357,48	3334,38
357,95	3293,55
358,41	3324,08
358,87	3308,10
359,34	3282,18
359,80	3306,55
360,27	3316,70
360,73	3307,40
361,19	3293,32
361,66	3308,75
362,12	3339,70
362,59	3308,28
363,05	3299,95
363,51	3307,32
363,98	3316,48
364,44	3307,72
364,91	3318,62
365,37	3310,18
365,83	3336,42
366,30	3294,65
366,76	3333,62
367,22	3286,95
367,69	3352,65
368,15	3320,08
368,61	3280,28
369,08	3288,68
369,54	3292,25
370,00	3297,55
370,47	3319,20
370,93	3331,20
371,39	3295,50
371,86	3305,72
372,32	3302,15
372,78	3294,10
373,25	3308,15
373,71	3354,35
374,17	3316,18
374,64	3292,95
375,10	3313,02
375,56	3294,20
376,03	3280,65
376,49	3308,80
376,95	3301,35
377,42	3307,20
377,88	3281,05
378,34	3284,90
378,80	3319,85
379,27	3281,78
379,73	3321,08
380,19	3310,70
380,66	3299,82
381,12	3294,12
381,58	3316,82
382,04	3293,00
382,51	3278,82
382,97	3307,85
383,43	3305,65
383,89	3280,20
384,36	3289,58
384,82	3307,65
385,28	3273,02
385,74	3328,30
386,21	3297,70
386,67	3283,70
387,13	3283,42
387,59	3310,35
388,06	3306,30
388,52	3303,85
388,98	3307,00
389,44	3303,28
389,91	3318,25
390,37	3334,45
390,83	3304,30
391,29	3333,80
391,75	3327,22
392,22	3278,10
392,68	3307,98
393,14	3302,48
393,60	3326,32
394,06	3306,30
394,53	3407,65
394,99	3310,65
395,45	3298,40
395,91	3301,85
396,37	3339,42
396,84	3289,38
397,30	3280,18
397,76	3322,90
398,22	3311,22
398,68	3329,28
399,14	3290,22
399,61	3320,90
400,07	3306,70
400,53	3317,45
400,99	3314,98
401,45	3309,65
401,91	3316,05
402,38	3302,25
402,84	3297,02
403,30	3361,85
403,76	3304,38
404,22	3333,60
404,68	3299,90
405,14	3319,85
405,61	3405,92
406,07	3287,42
406,53	3317,00
406,99	3325,38
407,45	3293,50
407,91	3307,92
408,37	3300,38
408,83	3288,98
409,29	3328,80
409,76	3288,45
410,22	3313,12
410,68	3305,80
411,14	3324,50
411,60	3317,32
412,06	3313,02
412,52	3299,18
412,98	3343,82
413,44	3318,22
413,90	3341,02
414,36	3357,45
414,83	3344,30
415,29	3306,35
415,75	3339,35
416,21	3335,30
416,67	3366,10
417,13	3329,05
417,59	3334,85
418,05	3343,48
418,51	3315,00
418,97	3356,42
419,43	3325,08
419,89	3369,58
420,35	3333,18
420,81	3376,10
421,27	3339,08
421,73	3331,98
422,19	3380,85
422,65	3368,00
423,11	3384,50
423,57	3398,55
424,03	3424,40
424,49	3397,08
424,96	3447,75
425,42	3427,10
425,88	3439,00
426,34	3486,22
426,80	3463,75
427,26	3479,15
427,72	3498,92
428,18	3519,00
428,64	3546,35
429,10	3541,78
429,56	3595,35
430,02	3590,48
430,47	3642,92
430,93	3658,32
431,39	3709,98
431,85	3735,45
432,31	3786,92
432,77	3839,20
433,23	3905,00
433,69	3939,10
434,15	4016,62
434,61	4061,40
435,07	4158,68
435,53	4200,52
435,99	4314,12
436,45	4400,42
436,91	4491,30
437,37	4568,28
437,83	4721,60
438,29	4831,68
438,75	4957,22
439,21	5104,15
439,67	5323,10
440,12	5405,12
440,58	5601,75
441,04	5830,85
441,50	6032,25
441,96	6241,72
442,42	6485,78
442,88	6762,72
443,34	7023,85
443,80	7371,00
444,26	7663,75
444,72	8061,85
445,17	8434,12
445,63	8840,35
446,09	9326,90
446,55	9781,72
447,01	10316,20
447,47	10840,25
447,93	11463,15
448,39	12187,55
448,85	12821,55
449,30	13580,48
449,76	14375,60
450,22	15202,08
450,68	16142,00
451,14	17189,70
451,60	18173,22
452,06	19336,88
452,51	20547,55
452,97	21796,02
453,43	23172,65
453,89	24564,68
454,35	25987,45
454,81	27535,32
455,26	29161,35
455,72	30864,12
456,18	32569,75
456,64	34300,10
457,10	36156,42
457,56	37951,58
458,01	39833,10
458,47	41703,42
458,93	43413,20
459,39	45173,38
459,85	46898,68
460,30	48521,45
460,76	49989,35
461,22	51393,22
461,68	52657,62
462,14	53683,10
462,59	54593,18
463,05	55377,02
463,51	55894,92
463,97	56208,92
464,43	56333,85
464,88	56235,32
465,34	55803,30
465,80	55277,38
466,26	54523,05
466,71	53582,15
467,17	52447,25
467,63	51232,05
468,09	49901,80
468,54	48428,90
469,00	46894,88
469,46	45313,22
469,92	43754,05
470,37	42192,32
470,83	40553,25
471,29	39006,15
471,75	37539,10
472,20	36052,30
472,66	34638,30
473,12	33315,28
473,58	32018,82
474,03	30882,40
474,49	29821,42
474,95	28809,02
475,40	27888,68
475,86	27005,30
476,32	26182,52
476,78	25454,50
477,23	24790,45
477,69	24113,82
478,15	23444,45
478,60	22823,02
479,06	22243,68
479,52	21633,80
479,97	21085,10
480,43	20493,12
480,89	19938,25
481,34	19393,50
481,80	18875,28
482,26	18280,45
482,71	17714,15
483,17	17183,18
483,63	16636,82
484,08	16125,10
484,54	15598,30
485,00	15083,78
485,45	14550,02
485,91	14062,20
486,37	13623,60
486,82	13100,25
487,28	12670,22
487,74	12211,48
488,19	11819,25
488,65	11414,42
489,10	11010,95
489,56	10633,25
490,02	10314,75
490,47	9990,62
490,93	9668,10
491,39	9409,80
491,84	9114,82
492,30	8883,25
492,75	8708,62
493,21	8472,10
493,67	8252,42
494,12	8027,08
494,58	7861,75
495,03	7677,35
495,49	7555,35
495,95	7366,62
496,40	7223,55
496,86	7094,32
497,31	6971,08
497,77	6859,92
498,23	6729,75
498,68	6579,82
499,14	6482,58
499,59	6347,65
500,05	6243,02
500,50	6115,80
500,96	6057,65
501,41	5964,40
501,87	5846,08
502,33	5732,78
502,78	5649,25
503,24	5544,45
503,69	5444,22
504,15	5383,70
504,60	5273,45
505,06	5196,35
505,51	5157,02
505,97	5064,25
506,42	4960,55
506,88	4910,15
507,33	4819,88
507,79	4816,20
508,24	4705,85
508,70	4638,75
509,15	4581,80
509,61	4524,35
510,06	4500,22
510,52	4437,20
510,97	4391,12
511,43	4344,05
511,88	4324,50
512,34	4261,45
512,79	4245,15
513,25	4205,18
513,70	4153,80
514,16	4133,50
514,61	4118,75
515,07	4074,98
515,52	4059,10
515,98	4035,18
516,43	3985,28
516,89	3958,50
517,34	3919,18
517,80	3921,58
518,25	3905,35
518,70	3872,75
519,16	3884,75
519,61	3876,45
520,07	3811,28
520,52	3782,12
520,98	3775,10
521,43	3778,42
521,89	3722,85
522,34	3759,22
522,79	3752,20
523,25	3679,85
523,70	3695,98
524,16	3696,72
524,61	3680,12
525,06	3704,12
525,52	3645,45
525,97	3625,58
526,43	3691,12
526,88	3596,88
527,33	3573,85
527,79	3559,80
528,24	3553,65
528,70	3565,82
529,15	3561,30
529,60	3557,85
530,06	3533,82
530,51	3503,78
530,97	3555,62
531,42	3527,08
531,87	3502,72
532,33	3532,72
532,78	3503,02
533,23	3503,50
533,69	3501,72
534,14	3486,22
534,59	3468,00
535,05	3460,78
535,50	3455,68
535,96	3469,28
536,41	3462,90
536,86	3442,32
537,32	3420,32
537,77	3453,10
538,22	3451,85
538,68	3411,70
539,13	3446,90
539,58	3421,85
540,03	3418,58
540,49	3419,35
540,94	3424,78
541,39	3408,90
541,85	3390,78
542,30	3403,82
542,75	3395,45
543,21	3406,42
543,66	3387,78
544,11	3413,68
544,57	3376,52
545,02	3402,25
545,47	3387,12
545,92	3385,80
546,38	3418,82
546,83	3394,52
547,28	3493,90
547,73	3352,02
548,19	3410,55
548,64	3379,52
549,09	3353,35
549,55	3384,40
550,00	3379,52
550,45	3359,38
550,90	3424,20
551,36	3346,10
551,81	3408,78
552,26	3386,85
552,71	3365,12
553,17	3359,10
553,62	3378,20
554,07	3365,55
554,52	3372,05
554,97	3370,25
555,43	3364,22
555,88	3357,08
556,33	3349,72
556,78	3343,62
557,24	3398,70
557,69	3351,30
558,14	3331,18
558,59	3361,68
559,04	3355,05
559,50	3394,50
559,95	3354,52
560,40	3332,22
560,85	3361,98
561,30	3340,50
561,76	3332,60
562,21	3355,70
562,66	3348,98
563,11	3384,35
563,56	3346,02
564,01	3373,18
564,47	3320,80
564,92	3347,68
565,37	3386,35
565,82	3336,22
566,27	3345,65
566,72	3326,50
567,18	3331,32
567,63	3327,60
568,08	3342,92
568,53	3336,60
568,98	3340,70
569,43	3336,48
569,88	3325,42
570,34	3341,00
570,79	3359,92
571,24	3325,25
571,69	3342,70
572,14	3330,70
572,59	3329,10
573,04	3339,40
573,49	3362,00
573,94	3330,58
574,40	3324,10
574,85	3336,05
575,30	3353,60
575,75	3324,20
576,20	3330,72
576,65	3349,00
577,10	3332,25
577,55	3328,90
578,00	3346,20
578,45	3343,10
578,91	3335,10
579,36	3337,22
579,81	3344,00
580,26	3319,65
580,71	3320,60
581,16	3333,08
581,61	3352,82
582,06	3345,18
582,51	3309,52
582,96	3336,05
583,41	3297,48
583,86	3350,40
584,31	3319,80
584,76	3323,82
585,21	3306,90
585,66	3350,95
586,11	3332,38
586,56	3315,98
587,01	3335,82
587,46	3335,42
587,92	3323,75
588,37	3322,60
588,82	3331,02
589,27	3324,60
589,72	3306,75
590,17	3325,45
590,62	3333,05
591,07	3318,28
591,52	3334,22
591,97	3309,38
592,42	3375,45
592,87	3317,48
593,32	3314,70
593,77	3315,68
594,22	3321,52
594,67	3342,95
595,12	3309,72
595,56	3331,95
596,01	3318,02
596,46	3308,18
596,91	3328,50
597,36	3336,98
597,81	3310,85
598,26	3295,72
598,71	3347,00
599,16	3314,00
599,61	3326,22
600,06	3317,68
600,51	3336,00
600,96	3319,28
601,41	3319,22
601,86	3345,08
602,31	3309,85
602,76	3304,92
603,21	3345,75
603,66	3334,50
604,11	3343,78
604,55	3320,18
605,00	3294,22
605,45	3315,58
605,90	3342,22
606,35	3307,38
606,80	3324,95
607,25	3340,38
607,70	3325,90
608,15	3334,30
608,60	3294,50
609,04	3377,65
609,49	3303,52
609,94	3321,88
610,39	3290,80
610,84	3290,68
611,29	3322,75
611,74	3309,65
612,19	3328,92
612,64	3319,00
613,08	3289,35
613,53	3315,42
613,98	3313,38
614,43	3315,62
614,88	3325,32
615,33	3315,42
615,78	3366,80
616,22	3330,85
616,67	3314,32
617,12	3304,48
617,57	3320,40
618,02	3290,85
618,47	3354,65
618,91	3327,25
619,36	3317,58
619,81	3378,12
620,26	3290,78
620,71	3292,60
621,16	3287,40
621,60	3288,92
622,05	3309,50
622,50	3312,55
622,95	3293,25
623,40	3307,68
623,84	3312,08
624,29	3327,12
624,74	3300,72
625,19	3304,95
625,64	3306,60
626,08	3327,65
626,53	3303,88
626,98	3327,82
627,43	3337,50
627,87	3309,88
628,32	3332,30
628,77	3338,18
629,22	3329,72
629,66	3299,10
630,11	3298,50
630,56	3333,40
631,01	3292,48
631,46	3307,90
631,90	3314,02
632,35	3300,72
632,80	3307,98
633,25	3313,00
633,69	3298,50
634,14	3324,55
634,59	3320,28
635,03	3276,58
635,48	3308,05
635,93	3319,95
636,38	3297,92
636,82	3320,18
637,27	3303,25
637,72	3327,40
638,16	3320,20
638,61	3337,30
639,06	3297,65
639,51	3303,08
639,95	3291,30
640,40	3295,22
640,85	3287,45
641,29	3304,90
641,74	3298,22
642,19	3283,55
642,63	3305,62
643,08	3300,65
643,53	3295,40
643,97	3320,68
644,42	3322,92
644,87	3295,10
645,31	3306,68
645,76	3291,35
646,21	3280,80
646,65	3312,92
647,10	3326,82
647,55	3284,65
647,99	3296,75
648,44	3297,38
648,89	3279,90
649,33	3293,95
649,78	3316,78
650,23	3294,65
650,67	3285,28
651,12	3296,08
651,56	3286,75
652,01	3308,40
652,46	3311,60
652,90	3311,58
653,35	3321,05
653,80	3310,78
654,24	3314,08
654,69	3285,30
655,13	3329,35
655,58	3311,42
656,03	3391,30
656,47	3290,02
656,92	3290,58
657,36	3288,75
657,81	3306,35
658,26	3288,60
658,70	3299,52
659,15	3296,98
659,59	3292,68
660,04	3302,92
660,48	3307,12
660,93	3295,30
661,38	3284,00
661,82	3317,12
662,27	3287,62
662,71	3301,30
663,16	3311,52
663,60	3316,12
664,05	3291,48
664,49	3308,55
664,94	3285,48
665,38	3393,12
665,83	3287,80
666,28	3325,98
666,72	3297,48
667,17	3285,68
667,61	3301,10
668,06	3285,52
668,50	3274,50
668,95	3311,10
669,39	3293,62
669,84	3289,60
670,28	3299,38
670,73	3281,18
671,17	3304,80
671,62	3285,68
672,06	3306,45
672,51	3305,48
672,95	3358,68
673,40	3331,92
673,84	3286,22
674,29	3309,72
674,73	3284,60
675,18	3347,62
675,62	3272,80
676,07	3285,92
676,51	3326,65
676,95	3295,70
677,40	3328,52
677,84	3351,65
678,29	3302,58
678,73	3300,38
679,18	3326,18
679,62	3370,50
680,07	3309,85
680,51	3309,60
680,96	3275,82
681,40	3281,42
681,84	3298,58
682,29	3294,75
682,73	3301,38
683,18	3292,30
683,62	3363,05
684,07	3286,12
684,51	3294,10
684,95	3307,48
685,40	3290,25
685,84	3299,85
686,29	3295,90
686,73	3267,92
687,17	3269,20
687,62	3290,55
688,06	3305,68
688,51	3314,90
688,95	3312,40
689,39	3308,20
689,84	3327,55
690,28	3310,82
690,73	3303,98
691,17	3309,80
691,61	3293,58
692,06	3289,25
692,50	3301,32
692,94	3292,58
693,39	3304,12
693,83	3296,12
694,27	3363,52
694,72	3316,65
695,16	3271,45
695,60	3296,12
696,05	3294,70
696,49	3274,78
696,94	3298,10
697,38	3277,32
697,82	3296,12
698,27	3295,55
698,71	3309,60
699,15	3309,75
699,59	3300,08
700,04	3298,02
700,48	3396,15
700,92	3306,38
701,37	3303,28
701,81	3337,92
702,25	3296,20
702,70	3290,60
703,14	3308,65
703,58	3285,18
704,03	3316,70
704,47	3318,48
704,91	3284,22
705,35	3291,72
705,80	3315,95
706,24	3318,50
706,68	3387,10
707,13	3273,55
707,57	3332,48
708,01	3282,68
708,45	3290,65
708,90	3302,62
709,34	3296,40
709,78	3290,75
710,22	3323,75
710,67	3322,65
711,11	3319,05
711,55	3276,90
711,99	3306,52
712,44	3297,85
712,88	3294,80
713,32	3310,92
713,76	3312,58
714,21	3300,50
714,65	3287,82
715,09	3299,38
715,53	3296,22
715,97	3284,30
716,42	3311,82
716,86	3299,10
717,30	3300,75
717,74	3281,80
718,18	3341,42
718,63	3298,45
719,07	3304,40
719,51	3330,12
719,95	3318,10
720,39	3297,08
720,84	3301,85
721,28	3287,82
721,72	3286,28
722,16	3282,72
722,60	3270,50
723,04	3308,50
723,49	3331,10
723,93	3281,52
724,37	3279,55
724,81	3297,82
725,25	3291,28
725,69	3286,35
726,14	3301,32
726,58	3287,25
727,02	3306,52
727,46	3290,75
727,90	3274,98
728,34	3268,05
728,78	3300,48
729,23	3271,95
729,67	3310,28
730,11	3273,65
730,55	3293,20
730,99	3295,02
731,43	3296,92
731,87	3337,95
732,31	3280,68
732,76	3327,50
733,20	3307,62
733,64	3291,75
734,08	3322,55
734,52	3283,48
734,96	3311,92
735,40	3275,95
735,84	3300,30
736,28	3308,55
736,72	3299,55
737,16	3299,00
737,61	3276,68
738,05	3311,98
738,49	3306,65
738,93	3280,65
739,37	3314,92
739,81	3305,42
740,25	3296,58
740,69	3356,30
741,13	3281,98
741,57	3303,78
742,01	3316,55
742,45	3310,88
742,89	3294,32
743,33	3289,08
743,77	3295,55
744,21	3271,85
744,65	3320,52
745,09	3305,15
745,53	3280,40
745,98	3306,48
746,42	3309,25
746,86	3292,60
747,30	3294,95
747,74	3281,15
748,18	3282,25
748,62	3296,32
749,06	3321,28
749,50	3315,65
749,94	3299,02
750,38	3314,70
750,82	3328,20
751,26	3263,90
751,70	3281,72
752,14	3271,90
752,58	3307,50
753,02	3291,48
753,45	3284,62
753,89	3303,25
754,33	3354,85
754,77	3296,52
755,21	3293,72
755,65	3272,92
756,09	3284,38
756,53	3285,10
756,97	3291,68
757,41	3337,28
757,85	3284,10
758,29	3288,42
758,73	3271,58
759,17	3284,48
759,61	3277,78
760,05	3291,02
760,49	3299,30
760,93	3321,92
761,37	3289,08
761,80	3322,25
762,24	3296,85
762,68	3292,75
763,12	3291,62
763,56	3286,65
764,00	3275,65
764,44	3288,40
764,88	3302,32
765,32	3291,35
765,76	3306,02
766,20	3319,50
766,63	3289,62
767,07	3270,42
767,51	3287,65
767,95	3312,82
768,39	3292,18
768,83	3271,15
769,27	3285,35
769,71	3306,88
770,14	3279,22
770,58	3274,35
771,02	3282,42
771,46	3293,82
771,90	3294,60
772,34	3296,50
772,78	3310,18
773,21	3290,55
773,65	3333,72
774,09	3278,08
774,53	3296,25
774,97	3278,62
775,41	3272,62
775,84	3302,88
776,28	3295,38
776,72	3301,05
777,16	3272,20
777,60	3288,25
778,04	3287,60
778,47	3261,85
778,91	3291,25
779,35	3278,22
779,79	3300,40
780,23	3300,35
780,66	3275,42
781,10	3288,85
781,54	3288,48
781,98	3307,20
782,42	3303,40
782,85	3287,48
783,29	3296,38
783,73	3359,90
784,17	3323,95
784,61	3293,58
785,04	3313,82
785,48	3303,02
785,92	3281,65
786,36	3300,02
786,79	3275,65
787,23	3288,18
787,67	3309,70
788,11	3312,42
788,54	3295,15
788,98	3288,38
789,42	3291,08
789,86	3276,00
790,29	3311,02
790,73	3310,98
791,17	3316,92
791,60	3276,15
792,04	3281,55
792,48	3304,42
792,92	3279,50
793,35	3285,50
793,79	3279,58
794,23	3295,60
794,67	3277,35
795,10	3283,50
795,54	3311,58
795,98	3287,20
796,41	3293,22
796,85	3283,92
797,29	3386,78
797,72	3315,95
798,16	3294,10
798,60	3298,38
799,03	3296,35
799,47	3273,42
799,91	3302,52
800,34	3290,98
800,78	3293,82
801,22	3280,55
801,65	3274,12
802,09	3286,08
802,53	3318,00
802,96	3296,68
803,40	3278,62
803,84	3328,75
804,27	3301,88
804,71	3277,98
805,15	3301,82
805,58	3293,10
806,02	3278,70
806,46	3313,65
806,89	3330,12
807,33	3310,25
807,76	3298,98
808,20	3287,72
808,64	3285,02
809,07	3332,42
809,51	3340,22
809,95	3329,62
810,38	3311,65
810,82	3337,52
811,25	3288,18
811,69	3294,75
812,13	3275,32
812,56	3305,45
813,00	3290,58
813,43	3280,12
813,87	3272,02
814,30	3301,92
814,74	3322,98
815,18	3370,52
815,61	3286,55
816,05	3278,55
816,48	3307,78
816,92	3337,05
817,35	3315,62
817,79	3296,55
818,23	3307,65
818,66	3302,82
819,10	3298,12
819,53	3284,05
819,97	3281,28
820,40	3283,30
820,84	3309,15
821,27	3301,28
821,71	3317,80
822,14	3285,12
822,58	3306,65
823,01	3320,98
823,45	3288,25
823,88	3300,12
824,32	3287,40
824,75	3294,75
825,19	3280,10
825,63	3320,05
826,06	3277,72
826,50	3292,58
826,93	3297,22
827,37	3278,00
827,80	3294,18
828,23	3288,60
828,67	3297,42
829,10	3301,45
829,54	3276,78
829,97	3286,70
830,41	3258,40
830,84	3290,48
831,28	3301,62
831,71	3314,45
832,15	3280,38
832,58	3313,80
833,02	3301,25
833,45	3281,68
833,89	3330,60
834,32	3287,15
834,75	3343,35
835,19	3311,08
835,62	3308,85
836,06	3269,82
836,49	3289,68
836,93	3287,80
837,36	3311,35
837,79	3304,80
838,23	3289,58
838,66	3283,48
839,10	3311,52
839,53	3289,48
839,97	3298,28
840,40	3287,45
840,83	3314,22
841,27	3279,82
841,70	3282,95
842,14	3301,48
842,57	3288,02
843,00	3324,12
843,44	3344,15
843,87	3293,18
844,31	3317,20
844,74	3263,48
845,17	3275,32
845,61	3271,68
846,04	3282,72
846,47	3305,40
846,91	3292,20
847,34	3304,30
847,77	3292,68
848,21	3277,95
848,64	3303,92
849,08	3290,72
849,51	3310,08
849,94	3279,08
850,38	3278,20
850,81	3292,68
851,24	3280,02
851,68	3284,42
852,11	3282,78
852,54	3303,65
852,98	3319,62
853,41	3303,78
853,84	3288,15
854,28	3316,72
854,71	3276,82
855,14	3296,82
855,57	3314,38
856,01	3281,50
856,44	3282,15
856,87	3304,45
857,31	3271,02
857,74	3309,75
858,17	3271,90
858,61	3278,85
859,04	3311,55
859,47	3320,10
859,90	3293,50
860,34	3301,10
860,77	3293,10
861,20	3272,32
861,63	3316,42
862,07	3258,85
862,50	3277,85
862,93	3283,78
863,37	3288,45
863,80	3290,20
864,23	3307,48
864,66	3280,75
865,10	3287,52
865,53	3302,35
865,96	3275,60
866,39	3287,82
866,82	3304,92
867,26	3279,68
867,69	3289,45
868,12	3285,58
868,55	3265,70
868,99	3286,58
869,42	3263,22
869,85	3304,90
870,28	3275,25
870,71	3295,12
871,15	3286,92
871,58	3279,98
872,01	3300,75
872,44	3292,80
872,87	3320,82
873,31	3346,48
873,74	3276,32
874,17	3286,02
874,60	3292,65
875,03	3278,75
875,47	3291,12
875,90	3299,25
876,33	3285,82
876,76	3313,52
877,19	3302,50
877,62	3281,08
878,06	3273,62
878,49	3311,38
878,92	3259,78
879,35	3298,65
879,78	3284,98
880,21	3292,22
880,64	3286,32
881,08	3286,58
881,51	3294,58
881,94	3287,70
882,37	3327,20
882,80	3274,02
883,23	3274,15
883,66	3286,52
884,09	3289,98
884,53	3305,00
884,96	3292,40
885,39	3283,48
885,82	3287,00
886,25	3280,60
886,68	3272,35
887,11	3303,40
887,54	3290,70
887,97	3297,25
888,40	3307,05
888,84	3282,62
889,27	3274,85
889,70	3324,90
890,13	3273,90
890,56	3276,62
890,99	3287,20
891,42	3275,68
891,85	3360,85
892,28	3269,20
892,71	3308,58
893,14	3281,10
893,57	3301,35
894,00	3297,88
894,43	3263,85
894,86	3278,02
895,29	3282,72
895,73	3266,70
896,16	3281,38
896,59	3292,82
897,02	3284,60
897,45	3300,35
897,88	3283,25
898,31	3274,10
898,74	3292,65
899,17	3300,20
899,60	3278,75
900,03	3274,70
900,46	3271,75
900,89	3295,08
901,32	3311,25
901,75	3273,25
902,18	3275,08
902,61	3278,05
903,04	3305,25
903,47	3301,22
903,90	3282,82
904,33	3328,98
904,76	3335,92
905,19	3277,52
905,62	3285,52
906,05	3325,88
906,48	3275,75
906,91	3294,62
907,34	3279,00
907,76	3284,82
908,19	3269,05
908,62	3310,60
909,05	3287,82
909,48	3308,40
909,91	3295,72
910,34	3286,50
910,77	3297,15
911,20	3319,85
911,63	3283,68
912,06	3265,55
912,49	3293,00
912,92	3293,02
913,35	3288,15
913,78	3278,62
914,21	3286,90
914,63	3290,02
915,06	3277,68
915,49	3295,82
915,92	3293,90
916,35	3286,80
916,78	3266,78
917,21	3267,92
917,64	3280,52
918,07	3277,90
918,50	3304,30
918,92	3280,92
919,35	3313,98
919,78	3280,28
920,21	3307,08
920,64	3274,00
921,07	3286,30
921,50	3286,62
921,93	3300,00
922,35	3305,00
922,78	3290,15
923,21	3320,22
923,64	3298,65
924,07	3278,88
924,50	3269,02
924,92	3265,42
925,35	3294,18
925,78	3315,88
926,21	3302,20
926,64	3265,32
927,07	3302,60
927,49	3270,05
927,92	3300,85
928,35	3335,72
928,78	3280,82
929,21	3300,60
929,64	3267,85
930,06	3336,95
930,49	3285,90
930,92	3270,62
931,35	3307,55
931,78	3280,82
932,20	3296,48
932,63	3303,90
933,06	3280,05
933,49	3298,32
933,92	3262,15
934,34	3327,10
934,77	3309,82
935,20	3344,50
935,63	3284,40
936,05	3308,82
936,48	3309,72
936,91	3299,15
937,34	3298,30
937,76	3267,42
938,19	3283,35
938,62	3277,22
939,05	3298,12
939,47	3269,38
939,90	3298,85
940,33	3274,25
940,76	3283,28
941,18	3299,10
941,61	3270,25
942,04	3291,90
942,47	3304,08
942,89	3339,35
943,32	3279,85
943,75	3308,80
944,17	3275,45
944,60	3283,25
945,03	3302,38
945,46	3269,70
945,88	3266,08
946,31	3298,85
946,74	3281,12
947,16	3297,40
947,59	3285,72
948,02	3287,60
948,44	3293,38
948,87	3315,18
949,30	3283,70
949,72	3286,15
950,15	3301,35
950,58	3263,12
951,00	3268,50
951,43	3270,48
951,86	3344,38
952,28	3312,82
952,71	3280,25
953,14	3285,52
953,56	3297,98
953,99	3269,40
954,42	3302,92
954,84	3281,48
955,27	3326,42
955,70	3267,95
956,12	3276,58
956,55	3282,55
956,98	3279,85
957,40	3280,48
957,83	3301,10
958,25	3269,85
958,68	3301,75
959,11	3354,72
959,53	3267,32
959,96	3298,08
960,38	3294,00
960,81	3281,78
961,24	3275,15
961,66	3278,88
962,09	3259,18
962,51	3281,15
962,94	3300,28
963,37	3301,08
963,79	3305,18
964,22	3307,68
964,64	3278,00
965,07	3287,85
965,49	3283,12
965,92	3289,10
966,35	3282,92
966,77	3277,25
967,20	3306,30
967,62	3278,55
968,05	3282,78
968,47	3297,58
968,90	3273,18
969,32	3278,30
969,75	3313,52
970,17	3377,62
970,60	3303,95
971,03	3286,50
971,45	3296,12
971,88	3272,98
972,30	3274,40
972,73	3297,38
973,15	3278,85
973,58	3284,65
974,00	3268,62
974,43	3275,68
974,85	3277,25
975,28	3297,18
975,70	3282,40
976,13	3300,90
976,55	3294,15
976,98	3273,80
977,40	3276,48
977,83	3273,78
978,25	3289,18
978,68	3268,98
979,10	3302,78
979,53	3291,30
979,95	3282,55
980,37	3282,82
980,80	3279,10
981,22	3308,00
981,65	3298,18
982,07	3279,08
982,50	3297,35
982,92	3309,32
983,35	3284,30
983,77	3282,98
984,20	3276,92
984,62	3281,32
985,04	3277,30
985,47	3306,80
985,89	3303,30
986,32	3273,08
986,74	3259,25
987,17	3284,22
987,59	3299,52
988,01	3280,80
988,44	3271,38
988,86	3296,40
989,29	3286,68
989,71	3287,22
990,13	3283,08
990,56	3292,80
990,98	3290,12
991,41	3281,32
991,83	3291,78
992,25	3288,05
992,68	3291,40
993,10	3323,22
993,53	3280,35
993,95	3270,02
994,37	3283,80
994,80	3277,10
995,22	3280,85
995,64	3298,75
996,07	3299,52
996,49	3287,55
996,91	3286,52
997,34	3260,85
997,76	3267,60
998,18	3257,85
998,61	3312,32
999,03	3303,08
999,45	3281,92
999,88	3291,20
1000,30	3271,25
1000,72	3316,12
1001,15	3287,28
1001,57	3290,30
1001,99	3313,58
1002,42	3271,38
1002,84	3288,30
1003,26	3295,75
1003,69	3286,92
1004,11	3293,52
1004,53	3286,28
1004,96	3295,28
1005,38	3271,28
1005,80	3292,88
1006,22	3300,15
1006,65	3314,88
1007,07	3284,42
1007,49	3267,50
1007,92	3296,98
1008,34	3286,65
1008,76	3273,40
1009,18	3264,02
1009,61	3285,88
1010,03	3282,45
1010,45	3363,12
1010,87	3311,08
1011,30	3304,78
1011,72	3295,35
1012,14	3294,08
1012,56	3306,45
1012,99	3285,40
1013,41	3301,90
1013,83	3295,28
1014,25	3294,60
1014,68	3292,80
1015,10	3271,72
1015,52	3314,48
1015,94	3262,32
1016,37	3305,55
1016,79	3279,42
1017,21	3289,55
1017,63	3270,45
1018,05	3296,72
1018,48	3281,02
1018,90	3281,88
1019,32	3285,82
1019,74	3261,35
1020,16	3351,72
1020,59	3312,28
1021,01	3301,68
1021,43	3282,48
1021,85	3283,08
1022,27	3285,18
1022,69	3294,38
1023,12	3298,00
1023,54	3285,68
1023,96	3366,00
1024,38	3311,95
1024,80	3304,40
1025,22	3302,08
1025,65	3289,60
1026,07	3292,92
1026,49	3306,50
1026,91	3277,80
1027,33	3275,75
1027,75	3337,42
1028,17	3305,20
1028,60	3297,00
1029,02	3287,22
1029,44	3297,48
1029,86	3276,65
1030,28	3335,08
1030,70	3290,58
1031,12	3288,15
1031,54	3298,20
1031,97	3313,88
1032,39	3269,92
1032,81	3294,10
1033,23	3303,85
1033,65	3288,30
1034,07	3306,92
1034,49	3274,25
1034,91	3275,80
1035,33	3297,68
1035,75	3303,68
1036,18	3277,28
1036,60	3322,98
1037,02	3278,55
1037,44	3277,92
1037,86	3294,02
1038,28	3263,12
1038,70	3301,10
1039,12	3306,88
1039,54	3303,48
1039,96	3317,28
1040,38	3319,20
1040,80	3286,88
1041,22	3285,20
1041,64	3298,25
1042,06	3282,15
1042,48	3322,92
1042,90	3317,88
1043,32	3302,10
1043,74	3307,35
1044,17	3291,15
1044,59	3304,72
1045,01	3272,62
1045,43	3286,48
1045,85	3284,88
1046,27	3269,45
1046,69	3291,65
1047,11	3303,95
1047,53	3276,75
1047,95	3295,50
1048,37	3308,40
1048,79	3275,42
1049,21	3310,40
1049,63	3302,02
1050,05	3310,90
1050,47	3281,68
1050,89	3286,55
1051,31	3300,58
1051,72	3302,08
1052,14	3316,60
1052,56	3311,78
1052,98	3288,25
1053,40	3309,02
1053,82	3256,10
1054,24	3289,82
1054,66	3260,32
1055,08	3288,82
1055,50	3275,12
1055,92	3296,35
1056,34	3303,42
1056,76	3330,25
1057,18	3309,50
1057,60	3305,78
1058,02	3294,48
1058,44	3378,60
1058,86	3273,82
1059,28	3301,30
1059,69	3307,22
1060,11	3291,38
1060,53	3284,55
1060,95	3280,75
1061,37	3310,95
1061,79	3293,90
1062,21	3280,85
1062,63	3302,62
1063,05	3324,45
1063,47	3295,52
1063,88	3284,85
1064,30	3278,75
1064,72	3316,75
1065,14	3310,80
1065,56	3284,90
1065,98	3275,30
1066,40	3265,52
1066,82	3308,95
1067,23	3291,90
1067,65	3290,20
1068,07	3297,15
1068,49	3283,78
1068,91	3323,02
1069,33	3295,08
1069,75	3281,18
1070,16	3265,95
1070,58	3311,42
1071,00	3310,55
1071,42	3311,90
1071,84	3286,45
1072,26	3298,68
1072,67	3280,12
1073,09	3270,82
1073,51	3269,22
1073,93	3305,82
1074,35	3285,15
1074,77	3266,32
1075,18	3281,60
1075,60	3285,32
1076,02	3294,10
1076,44	3278,70
1076,86	3275,38
1077,27	3291,98
1077,69	3309,78
1078,11	3282,25
1078,53	3306,28
1078,94	3322,00
1079,36	3255,40
1079,78	3292,42
1080,20	3284,75
1080,62	3291,35
1081,03	3298,92
1081,45	3286,50
1081,87	3281,72
1082,29	3297,98
1082,70	3289,45
1083,12	3291,05
1083,54	3287,80
1083,96	3286,90
1084,37	3308,95
1084,79	3289,50
1085,21	3283,60
1085,63	3314,78
1086,04	3273,55
1086,46	3280,70
1086,88	3296,98
1087,30	3265,58
1087,71	3303,42
1088,13	4349,00
1088,55	3282,92
1088,96	3278,00
1089,38	3284,32
1089,80	3284,18
1090,22	3314,85
1090,63	3287,18
1091,05	3272,10
1091,47	3292,60
1091,88	3283,50
1092,30	3273,12
1092,72	3290,82
1093,13	3282,75
1093,55	3288,28
1093,97	3286,65
1094,38	3289,68
1094,80	3285,78
1095,22	3286,82
1095,63	3281,35
1096,05	3285,40
1096,47	3297,95
1096,88	3270,35
1097,30	3289,08
1097,72	3276,00
1098,13	3298,68
1098,55	3300,62
1098,97	3303,75
1099,38	3286,50
1099,80	3284,65
1100,21	3276,92
1100,63	3280,45
1101,05	3279,10
1101,46	3290,05
1101,88	3271,75
1102,30	3279,05
1102,71	3284,10
1103,13	3287,32
1103,54	3292,75
1103,96	3279,55
1104,38	3320,52
1104,79	3255,38
1105,21	3287,70
1105,62	3287,52
1106,04	3271,55
1106,46	3285,62
1106,87	3254,02
1107,29	3262,22
1107,70	3311,28
1108,12	3265,20
1108,54	3296,72
1108,95	3294,20
1109,37	3291,82
1109,78	3256,72
1110,20	3278,52
1110,61	3258,98
1111,03	3258,98
1111,44	3258,98
1111,86	3258,98
1112,28	3258,98
1112,69	3258,98
1113,11	3258,98
1113,52	3258,98
1113,94	3258,98
1114,35	3258,98
1114,77	3258,98
1115,18	3258,98
1115,60	3258,98
1116,01	3258,98
1116,43	3258,98
1116,84	3258,98
1117,26	3258,98
1117,67	3258,98
1118,09	3258,98
1118,50	3258,98
1118,92	3258,98
>>>>>End Processed Spectral Data<<<<<
