SpectraSuite Data File
++++++++++++++++++++++++++++++++++++
Date: Tue Jul 12 15:36:26 EEST 2011
User: OO Maya
Dark Spectrum Present: No
Reference Spectrum Present: No
Number of Sampled Component Spectra: 1
Spectrometers: MAYP11278
Integration Time (usec): 6000 (MAYP11278)
Spectra Averaged: 40 (MAYP11278)
Boxcar Smoothing: 0 (MAYP11278)
Correct for Electrical Dark: No (MAYP11278)
Strobe/Lamp Enabled: No (MAYP11278)
Correct for Detector Non-linearity: No (MAYP11278)
Correct for Stray Light: No (MAYP11278)
Number of Pixels in Processed Spectrum: 2068
>>>>>Begin Processed Spectral Data<<<<<
200,00	2998,55
200,47	2994,80
200,95	2994,52
201,42	2991,95
201,89	2999,70
202,37	2998,60
202,84	2996,90
203,31	2998,75
203,79	2998,50
204,26	2999,15
204,73	3000,95
205,20	3000,25
205,68	3001,05
206,15	3000,68
206,62	3003,18
207,10	3001,98
207,57	3004,28
208,04	3001,65
208,51	3002,05
208,99	2999,88
209,46	2998,95
209,93	3000,02
210,41	2999,68
210,88	2999,55
211,35	3002,48
211,82	3001,35
212,30	3000,48
212,77	3001,88
213,24	3002,70
213,71	3003,00
214,19	3001,78
214,66	3000,25
215,13	3000,85
215,60	3000,58
216,08	3001,12
216,55	3001,80
217,02	3002,12
217,49	2999,82
217,96	3001,68
218,44	3000,68
218,91	2999,42
219,38	3003,88
219,85	3001,40
220,33	3001,32
220,80	3001,40
221,27	3002,22
221,74	3000,38
222,21	2999,95
222,69	3000,42
223,16	3002,00
223,63	3001,28
224,10	3001,68
224,57	3001,25
225,04	3001,55
225,52	2999,65
225,99	3002,82
226,46	3001,35
226,93	3003,22
227,40	3000,00
227,87	3001,72
228,35	3002,05
228,82	3001,20
229,29	3000,15
229,76	3001,00
230,23	3002,00
230,70	3000,15
231,18	3001,22
231,65	3000,65
232,12	3002,02
232,59	3001,55
233,06	3002,25
233,53	3001,10
234,00	3000,60
234,48	3001,50
234,95	3001,05
235,42	3000,50
235,89	3002,40
236,36	2999,18
236,83	3000,65
237,30	3001,48
237,77	2998,52
238,24	3001,58
238,72	3002,12
239,19	3000,25
239,66	3000,52
240,13	3001,18
240,60	3001,70
241,07	3000,05
241,54	3001,15
242,01	3000,95
242,48	3000,75
242,95	3002,18
243,42	3000,82
243,90	3000,52
244,37	3000,95
244,84	3000,75
245,31	3001,12
245,78	3003,22
246,25	3001,20
246,72	3000,92
247,19	2999,50
247,66	2999,88
248,13	3002,48
248,60	3001,95
249,07	3000,12
249,54	3001,28
250,01	2999,50
250,48	3001,28
250,95	3001,12
251,42	2999,32
251,89	3001,15
252,36	3002,25
252,83	3001,40
253,30	3000,22
253,77	3001,42
254,24	3002,62
254,71	3000,28
255,18	3001,15
255,65	3000,65
256,12	3002,25
256,59	2999,70
257,06	3001,22
257,53	3002,25
258,00	2999,25
258,47	3001,62
258,94	3001,50
259,41	3001,22
259,88	3002,85
260,35	2999,15
260,82	3001,90
261,29	3000,65
261,76	3001,75
262,23	3001,15
262,70	2999,78
263,17	3003,32
263,64	3003,02
264,11	3000,70
264,58	3002,10
265,05	3001,48
265,52	3001,28
265,99	3001,45
266,46	3001,40
266,93	3001,15
267,40	3000,78
267,87	3001,62
268,34	3000,02
268,81	3002,18
269,28	3003,22
269,74	3001,72
270,21	3000,60
270,68	3002,05
271,15	3001,42
271,62	3000,68
272,09	3001,50
272,56	3000,68
273,03	3001,12
273,50	3000,88
273,97	3002,05
274,44	3000,48
274,90	3001,30
275,37	3000,00
275,84	3001,40
276,31	3001,02
276,78	3001,42
277,25	3001,98
277,72	3000,92
278,19	3000,60
278,66	3001,48
279,12	3001,18
279,59	3000,60
280,06	2999,38
280,53	3001,35
281,00	3000,20
281,47	3000,58
281,94	3001,70
282,40	3000,58
282,87	3000,75
283,34	3001,82
283,81	3001,68
284,28	2999,30
284,75	2999,62
285,21	3000,95
285,68	3002,38
286,15	3000,28
286,62	3000,70
287,09	2999,50
287,56	3001,62
288,02	3002,05
288,49	2999,70
288,96	3000,78
289,43	2999,55
289,90	3005,20
290,36	3000,25
290,83	3001,20
291,30	3002,80
291,77	3002,58
292,24	3003,12
292,70	2998,88
293,17	3001,40
293,64	3001,80
294,11	3000,85
294,58	3000,98
295,04	3000,50
295,51	3000,72
295,98	3000,10
296,45	3000,60
296,91	3001,08
297,38	3000,75
297,85	2998,60
298,32	3000,08
298,79	3003,12
299,25	3000,60
299,72	3002,80
300,19	2999,00
300,66	3000,72
301,12	3000,08
301,59	3001,28
302,06	3000,20
302,52	3001,32
302,99	3002,12
303,46	3000,62
303,93	3001,32
304,39	2999,42
304,86	3001,35
305,33	3002,30
305,80	2999,20
306,26	3002,18
306,73	3001,88
307,20	3002,22
307,66	3003,48
308,13	3000,12
308,60	3000,18
309,07	3001,80
309,53	2999,38
310,00	3001,75
310,47	3000,68
310,93	3001,28
311,40	3000,40
311,87	3001,10
312,33	3002,30
312,80	3002,02
313,27	3001,25
313,73	3001,75
314,20	3002,72
314,67	3000,38
315,13	2999,62
315,60	3001,85
316,07	3001,22
316,53	3001,80
317,00	3000,95
317,47	3001,38
317,93	3000,18
318,40	2999,82
318,87	3000,95
319,33	2999,95
319,80	3000,78
320,26	3000,42
320,73	3000,60
321,20	3003,05
321,66	2998,72
322,13	3001,42
322,60	3002,48
323,06	3000,90
323,53	3001,70
323,99	3001,75
324,46	2999,72
324,93	3001,42
325,39	3001,85
325,86	3000,65
326,32	3000,80
326,79	3002,10
327,26	3000,58
327,72	3003,08
328,19	3000,32
328,65	3001,75
329,12	3001,48
329,59	3001,95
330,05	3000,02
330,52	3002,28
330,98	3000,82
331,45	3002,28
331,91	3000,50
332,38	2999,32
332,85	2999,70
333,31	3002,45
333,78	2999,40
334,24	3001,82
334,71	3000,55
335,17	3002,45
335,64	2999,62
336,10	3000,95
336,57	3001,30
337,03	3001,02
337,50	3001,32
337,96	3001,42
338,43	3002,72
338,90	3000,50
339,36	3001,20
339,83	3001,38
340,29	3000,55
340,76	2998,65
341,22	3001,42
341,69	3001,35
342,15	3002,82
342,62	2999,92
343,08	3001,62
343,55	3000,75
344,01	3002,08
344,48	3003,52
344,94	3000,85
345,41	3002,05
345,87	3004,38
346,34	3000,85
346,80	3000,45
347,27	3002,00
347,73	3001,32
348,19	3000,35
348,66	3000,72
349,12	3002,98
349,59	3001,88
350,05	3001,12
350,52	3000,70
350,98	3000,85
351,45	3000,20
351,91	3001,55
352,38	3000,05
352,84	3001,92
353,30	3001,38
353,77	3000,58
354,23	3000,40
354,70	3001,10
355,16	3001,05
355,63	3000,32
356,09	3001,62
356,55	3000,30
357,02	3001,52
357,48	3003,60
357,95	2999,35
358,41	3001,42
358,87	3000,72
359,34	3000,62
359,80	3000,48
360,27	3001,55
360,73	3003,20
361,19	3000,60
361,66	2999,95
362,12	3003,30
362,59	3001,12
363,05	2999,55
363,51	3002,10
363,98	2999,78
364,44	3002,10
364,91	3000,58
365,37	3001,50
365,83	3004,30
366,30	2999,80
366,76	3001,72
367,22	3000,50
367,69	3001,60
368,15	3001,08
368,61	3001,00
369,08	2999,92
369,54	3000,78
370,00	3000,22
370,47	3001,28
370,93	3004,18
371,39	2999,92
371,86	3001,02
372,32	3000,90
372,78	3001,82
373,25	3000,42
373,71	3003,52
374,17	3000,68
374,64	3001,05
375,10	3000,50
375,56	3001,02
376,03	2999,40
376,49	3001,98
376,95	3000,00
377,42	3002,22
377,88	2999,30
378,34	2999,12
378,80	3001,55
379,27	3000,38
379,73	3000,35
380,19	3001,72
380,66	3000,30
381,12	2999,38
381,58	3000,28
382,04	3002,08
382,51	3000,68
382,97	3000,80
383,43	3001,15
383,89	2999,25
384,36	3001,00
384,82	3001,38
385,28	3000,05
385,74	3004,02
386,21	2999,72
386,67	3000,35
387,13	3000,35
387,59	3001,80
388,06	3000,32
388,52	2999,92
388,98	3000,45
389,44	3000,55
389,91	3000,52
390,37	2999,72
390,83	3001,52
391,29	3002,70
391,75	3002,40
392,22	3000,02
392,68	3000,78
393,14	3001,22
393,60	3001,38
394,06	3000,25
394,53	3003,55
394,99	3000,88
395,45	3001,70
395,91	3001,30
396,37	3001,62
396,84	3000,00
397,30	2999,75
397,76	3000,48
398,22	3000,38
398,68	3000,75
399,14	2999,10
399,61	3001,58
400,07	3000,52
400,53	3000,90
400,99	3002,60
401,45	3000,48
401,91	3000,62
402,38	3001,60
402,84	2999,45
403,30	3002,38
403,76	3002,15
404,22	3002,22
404,68	2999,82
405,14	3001,72
405,61	3004,10
406,07	3000,38
406,53	2999,78
406,99	3000,25
407,45	3000,70
407,91	3000,92
408,37	3000,12
408,83	2999,68
409,29	3000,98
409,76	3001,32
410,22	3000,85
410,68	2999,30
411,14	3002,15
411,60	3000,95
412,06	2999,28
412,52	3002,10
412,98	3000,38
413,44	3001,50
413,90	3000,18
414,36	3002,60
414,83	3001,52
415,29	2999,30
415,75	3002,22
416,21	3001,22
416,67	3002,60
417,13	3000,68
417,59	3001,18
418,05	3001,32
418,51	2999,70
418,97	3002,28
419,43	3001,10
419,89	3000,70
420,35	3000,70
420,81	3003,25
421,27	3000,10
421,73	2999,88
422,19	3001,58
422,65	3001,05
423,11	3001,75
423,57	3001,80
424,03	3002,60
424,49	3000,75
424,96	3002,05
425,42	3000,30
425,88	3001,18
426,34	3003,00
426,80	3000,82
427,26	3000,12
427,72	3001,18
428,18	3001,98
428,64	3002,22
429,10	3000,05
429,56	3000,75
430,02	3000,92
430,47	3001,22
430,93	2999,68
431,39	3001,28
431,85	3002,68
432,31	3000,32
432,77	3001,35
433,23	3000,12
433,69	3000,85
434,15	3000,62
434,61	3002,02
435,07	3001,45
435,53	3001,28
435,99	3001,22
436,45	3002,55
436,91	3000,40
437,37	3000,42
437,83	3001,48
438,29	2999,95
438,75	3000,48
439,21	3000,92
439,67	3003,92
440,12	2999,85
440,58	3001,20
441,04	3002,12
441,50	3001,75
441,96	3000,60
442,42	3001,02
442,88	3001,68
443,34	3000,00
443,80	3001,78
444,26	2999,40
444,72	3001,28
445,17	3000,92
445,63	3000,60
446,09	3000,98
446,55	3001,52
447,01	3000,05
447,47	3001,45
447,93	3000,28
448,39	3004,85
448,85	3001,52
449,30	3000,45
449,76	3001,72
450,22	2999,58
450,68	3000,58
451,14	3004,28
451,60	2998,55
452,06	3001,72
452,51	3000,15
452,97	2999,90
453,43	3002,80
453,89	2999,85
454,35	3000,55
454,81	3000,75
455,26	3002,15
455,72	2998,98
456,18	3000,62
456,64	2999,68
457,10	2999,78
457,56	3000,02
458,01	3001,50
458,47	3000,52
458,93	3000,50
459,39	3000,58
459,85	3000,42
460,30	3001,20
460,76	3001,02
461,22	3001,30
461,68	3001,82
462,14	2999,80
462,59	3001,00
463,05	2999,60
463,51	3001,65
463,97	3000,02
464,43	2999,48
464,88	3000,80
465,34	2999,12
465,80	3001,15
466,26	2999,30
466,71	3002,20
467,17	2998,62
467,63	3001,32
468,09	2999,90
468,54	3000,10
469,00	2998,82
469,46	2998,75
469,92	3001,38
470,37	3003,02
470,83	2999,40
471,29	3001,30
471,75	3000,28
472,20	3000,95
472,66	3000,22
473,12	2999,65
473,58	3000,28
474,03	2999,32
474,49	3001,30
474,95	3000,40
475,40	2999,95
475,86	3000,88
476,32	3001,90
476,78	3000,40
477,23	3000,25
477,69	2999,95
478,15	3000,10
478,60	3001,38
479,06	2999,32
479,52	3001,02
479,97	3002,32
480,43	2999,65
480,89	3001,28
481,34	3001,20
481,80	3001,05
482,26	3001,30
482,71	3001,00
483,17	2999,55
483,63	2999,22
484,08	3000,38
484,54	3002,10
485,00	3001,62
485,45	2999,78
485,91	3001,30
486,37	3001,60
486,82	3000,25
487,28	3001,30
487,74	3000,52
488,19	3001,28
488,65	2999,82
489,10	3000,80
489,56	3001,25
490,02	2999,35
490,47	3001,32
490,93	2999,98
491,39	2999,38
491,84	3000,82
492,30	3001,00
492,75	3003,35
493,21	3001,25
493,67	2999,10
494,12	2999,70
494,58	3000,12
495,03	2998,40
495,49	3000,88
495,95	3000,02
496,40	3000,12
496,86	3001,60
497,31	3000,75
497,77	2999,80
498,23	3001,82
498,68	3001,50
499,14	3000,68
499,59	3000,12
500,05	3001,22
500,50	2998,60
500,96	3000,90
501,41	3001,05
501,87	3001,18
502,33	2999,82
502,78	3001,28
503,24	3001,70
503,69	2999,18
504,15	3001,52
504,60	2999,42
505,06	2999,92
505,51	3002,58
505,97	3001,00
506,42	3001,90
506,88	3001,42
507,33	3000,82
507,79	3003,32
508,24	2999,88
508,70	3000,40
509,15	2999,70
509,61	3001,22
510,06	3000,90
510,52	2999,28
510,97	3000,20
511,43	2999,90
511,88	3002,35
512,34	3001,72
512,79	3000,98
513,25	3002,00
513,70	3000,12
514,16	3000,42
514,61	2999,68
515,07	3001,72
515,52	3001,05
515,98	3000,70
516,43	2999,75
516,89	2999,15
517,34	3000,02
517,80	3000,88
518,25	3000,55
518,70	3000,38
519,16	3000,68
519,61	3001,28
520,07	2999,42
520,52	3000,10
520,98	2997,88
521,43	3001,70
521,89	2998,92
522,34	3001,68
522,79	3001,80
523,25	2999,70
523,70	3001,65
524,16	3001,58
524,61	3000,62
525,06	3003,40
525,52	3000,82
525,97	3001,30
526,43	3003,10
526,88	3000,18
527,33	2999,30
527,79	3001,48
528,24	3000,75
528,70	3000,05
529,15	3002,18
529,60	3002,30
530,06	3000,48
530,51	3000,72
530,97	3003,42
531,42	3001,00
531,87	3000,38
532,33	3001,80
532,78	3001,35
533,23	3002,02
533,69	3000,78
534,14	3001,45
534,59	3001,52
535,05	3001,22
535,50	3000,05
535,96	3000,95
536,41	3000,72
536,86	3000,80
537,32	2999,25
537,77	3001,78
538,22	2999,90
538,68	3000,25
539,13	2999,65
539,58	2999,62
540,03	3000,78
540,49	3001,32
540,94	3001,05
541,39	3000,52
541,85	3000,90
542,30	3001,20
542,75	3000,78
543,21	2999,58
543,66	2999,12
544,11	3002,72
544,57	3000,48
545,02	3000,78
545,47	3000,75
545,92	3000,22
546,38	3001,48
546,83	3002,32
547,28	3003,70
547,73	3000,88
548,19	3001,28
548,64	3000,68
549,09	3000,40
549,55	3001,82
550,00	3000,75
550,45	3000,75
550,90	3002,55
551,36	2999,85
551,81	3002,32
552,26	3001,88
552,71	3000,18
553,17	2999,78
553,62	3002,42
554,07	3000,65
554,52	3001,15
554,97	3000,48
555,43	3000,62
555,88	3001,18
556,33	2998,85
556,78	3000,62
557,24	3002,18
557,69	3000,45
558,14	2999,60
558,59	2999,95
559,04	3000,12
559,50	3002,18
559,95	3000,48
560,40	3000,65
560,85	3001,52
561,30	3001,05
561,76	3000,05
562,21	3001,00
562,66	2999,25
563,11	3003,40
563,56	3001,20
564,01	3000,60
564,47	3000,40
564,92	2999,78
565,37	3002,32
565,82	3000,18
566,27	3000,98
566,72	2999,65
567,18	2999,50
567,63	3000,22
568,08	2999,72
568,53	2999,58
568,98	2999,58
569,43	3000,25
569,88	2999,05
570,34	3000,75
570,79	3001,55
571,24	3000,60
571,69	3002,22
572,14	3000,28
572,59	3000,88
573,04	3000,92
573,49	3002,62
573,94	2999,65
574,40	2999,65
574,85	3000,75
575,30	3002,20
575,75	2999,92
576,20	3001,70
576,65	3000,98
577,10	3001,40
577,55	3001,45
578,00	3001,38
578,45	3000,40
578,91	3000,88
579,36	3000,40
579,81	3000,48
580,26	2999,85
580,71	3001,08
581,16	3001,65
581,61	3001,22
582,06	3000,88
582,51	3000,42
582,96	3001,50
583,41	2998,48
583,86	3002,20
584,31	3001,15
584,76	3000,52
585,21	2999,35
585,66	3001,05
586,11	3000,38
586,56	3001,42
587,01	3000,25
587,46	3000,42
587,92	3001,30
588,37	3000,95
588,82	3002,28
589,27	2999,58
589,72	3000,25
590,17	3000,68
590,62	3000,65
591,07	3000,48
591,52	3000,90
591,97	2999,38
592,42	3001,25
592,87	3000,55
593,32	3002,20
593,77	3000,72
594,22	3000,62
594,67	3000,75
595,12	3000,00
595,56	2999,60
596,01	3000,60
596,46	2999,42
596,91	2999,85
597,36	3001,00
597,81	3000,10
598,26	2998,15
598,71	3002,32
599,16	2999,75
599,61	3000,70
600,06	3000,95
600,51	3002,30
600,96	2999,30
601,41	3000,68
601,86	3000,80
602,31	3000,75
602,76	3002,10
603,21	3002,48
603,66	3001,55
604,11	3001,58
604,55	3000,98
605,00	2999,78
605,45	3000,65
605,90	3001,48
606,35	2999,95
606,80	3000,52
607,25	3002,15
607,70	3001,28
608,15	3000,35
608,60	2999,72
609,04	3003,80
609,49	3000,32
609,94	3000,48
610,39	2999,10
610,84	3000,98
611,29	3001,10
611,74	3001,60
612,19	3000,48
612,64	3000,78
613,08	3000,40
613,53	3000,40
613,98	3000,35
614,43	3001,50
614,88	3001,38
615,33	3000,58
615,78	3002,40
616,22	3001,95
616,67	3001,98
617,12	3000,95
617,57	3002,05
618,02	2998,45
618,47	3003,30
618,91	3001,55
619,36	3001,05
619,81	3004,00
620,26	2999,82
620,71	2999,92
621,16	3000,02
621,60	2999,78
622,05	3000,10
622,50	3000,42
622,95	3000,25
623,40	2999,60
623,84	3000,68
624,29	3001,72
624,74	3000,95
625,19	2999,68
625,64	3002,38
626,08	3001,78
626,53	3000,32
626,98	3000,82
627,43	3001,05
627,87	3001,22
628,32	3002,58
628,77	3002,18
629,22	3001,68
629,66	3000,70
630,11	3000,25
630,56	3001,72
631,01	3000,90
631,46	3000,38
631,90	3002,00
632,35	2999,78
632,80	3000,68
633,25	3001,10
633,69	3000,65
634,14	3000,20
634,59	3001,10
635,03	3000,00
635,48	3001,80
635,93	3001,32
636,38	3001,18
636,82	3001,35
637,27	2999,30
637,72	3000,60
638,16	2999,75
638,61	3002,52
639,06	3000,28
639,51	3000,50
639,95	3000,10
640,40	3002,15
640,85	3000,55
641,29	3001,90
641,74	3000,38
642,19	3000,65
642,63	3000,05
643,08	3000,02
643,53	3000,08
643,97	3000,58
644,42	3001,98
644,87	2999,92
645,31	3000,30
645,76	3000,35
646,21	2999,32
646,65	3001,78
647,10	3001,62
647,55	2999,25
647,99	2998,50
648,44	3000,12
648,89	2998,82
649,33	3000,28
649,78	3001,48
650,23	2999,78
650,67	3000,22
651,12	3001,52
651,56	3000,48
652,01	3000,95
652,46	3001,78
652,90	3001,12
653,35	3001,22
653,80	3000,95
654,24	3000,32
654,69	2999,65
655,13	3001,90
655,58	3000,38
656,03	3003,78
656,47	3000,35
656,92	3000,35
657,36	2999,60
657,81	3001,62
658,26	3000,45
658,70	3000,78
659,15	2999,42
659,59	3001,40
660,04	3000,25
660,48	3000,20
660,93	2998,98
661,38	3000,22
661,82	3000,00
662,27	3000,65
662,71	3001,55
663,16	3000,15
663,60	3000,05
664,05	3001,40
664,49	3000,30
664,94	2999,72
665,38	3003,90
665,83	2999,78
666,28	3001,60
666,72	3000,80
667,17	2999,32
667,61	2999,55
668,06	3000,42
668,50	2999,30
668,95	3002,68
669,39	2999,38
669,84	3001,05
670,28	3000,12
670,73	3001,02
671,17	3001,28
671,62	2999,35
672,06	3001,68
672,51	3001,45
672,95	3002,22
673,40	3001,52
673,84	2999,30
674,29	2999,58
674,73	3000,60
675,18	3001,90
675,62	3000,35
676,07	2999,78
676,51	3001,25
676,95	3000,95
677,40	3001,80
677,84	3003,72
678,29	3000,75
678,73	3001,40
679,18	3001,60
679,62	3003,02
680,07	3001,08
680,51	3001,58
680,96	3000,80
681,40	2999,92
681,84	3000,78
682,29	2999,72
682,73	3000,42
683,18	3001,05
683,62	3003,08
684,07	3000,65
684,51	3000,35
684,95	3001,10
685,40	3000,48
685,84	3000,90
686,29	3000,20
686,73	2998,60
687,17	2998,78
687,62	3000,02
688,06	3001,88
688,51	3000,72
688,95	3001,70
689,39	2998,90
689,84	3001,30
690,28	3001,45
690,73	3000,70
691,17	3001,10
691,61	3002,00
692,06	2998,88
692,50	3000,55
692,94	3000,58
693,39	2999,82
693,83	2999,10
694,27	3003,42
694,72	2999,90
695,16	2999,78
695,60	3001,02
696,05	2998,60
696,49	2999,28
696,94	3000,35
697,38	2999,40
697,82	3001,58
698,27	2999,62
698,71	3000,80
699,15	3000,40
699,59	3000,08
700,04	3000,35
700,48	3002,85
700,92	3000,80
701,37	2999,10
701,81	3003,72
702,25	3000,42
702,70	3000,42
703,14	3002,12
703,58	2999,85
704,03	3000,70
704,47	3000,50
704,91	3000,88
705,35	3000,18
705,80	3001,90
706,24	3000,52
706,68	3003,10
707,13	2998,95
707,57	3000,88
708,01	3000,20
708,45	3001,18
708,90	3000,22
709,34	2999,88
709,78	2998,78
710,22	3001,22
710,67	3001,22
711,11	3000,08
711,55	3000,90
711,99	3001,90
712,44	2999,42
712,88	2999,32
713,32	3001,65
713,76	3001,30
714,21	3000,40
714,65	2999,62
715,09	3001,55
715,53	3000,40
715,97	3002,22
716,42	3001,08
716,86	3002,10
717,30	3000,90
717,74	3000,30
718,18	3003,48
718,63	3000,48
719,07	2999,80
719,51	3001,78
719,95	3002,85
720,39	3000,55
720,84	3000,50
721,28	2998,30
721,72	3001,12
722,16	2998,60
722,60	2999,45
723,04	3001,40
723,49	3002,18
723,93	3000,52
724,37	2999,18
724,81	3001,82
725,25	2999,02
725,69	3000,75
726,14	2999,15
726,58	2999,75
727,02	3000,80
727,46	2999,48
727,90	2999,70
728,34	2999,95
728,78	3000,62
729,23	2999,55
729,67	3000,25
730,11	2999,95
730,55	3000,52
730,99	3001,62
731,43	3001,50
731,87	3002,45
732,31	2998,55
732,76	3001,52
733,20	3002,40
733,64	3001,10
734,08	3000,52
734,52	3000,65
734,96	3000,38
735,40	2998,80
735,84	3001,10
736,28	3000,02
736,72	3000,55
737,16	3001,08
737,61	3000,38
738,05	3001,25
738,49	2999,60
738,93	3001,95
739,37	3001,25
739,81	3000,82
740,25	3001,68
740,69	3001,60
741,13	3000,62
741,57	3000,08
742,01	3001,75
742,45	3001,52
742,89	3000,85
743,33	2999,62
743,77	3001,78
744,21	2999,12
744,65	3001,70
745,09	3000,68
745,53	2999,68
745,98	3001,08
746,42	3002,25
746,86	3001,55
747,30	3000,22
747,74	2999,85
748,18	3000,85
748,62	3000,38
749,06	3001,55
749,50	3000,92
749,94	3001,25
750,38	3001,68
750,82	3000,70
751,26	3000,08
751,70	2999,70
752,14	2998,70
752,58	3002,20
753,02	3002,02
753,45	2999,78
753,89	2999,18
754,33	3002,12
754,77	3002,50
755,21	3000,10
755,65	2999,38
756,09	2999,42
756,53	2999,82
756,97	3001,72
757,41	3001,62
757,85	3000,38
758,29	3000,05
758,73	2999,48
759,17	3001,25
759,61	2999,50
760,05	3000,32
760,49	2999,92
760,93	2999,42
761,37	2999,82
761,80	3001,15
762,24	3001,62
762,68	3000,68
763,12	2999,65
763,56	2999,72
764,00	2998,65
764,44	3000,48
764,88	2999,42
765,32	3000,45
765,76	2999,90
766,20	3001,02
766,63	2999,45
767,07	2999,92
767,51	2999,80
767,95	3000,88
768,39	3000,90
768,83	3000,15
769,27	3000,75
769,71	3000,28
770,14	3000,60
770,58	2998,78
771,02	2999,80
771,46	3002,65
771,90	2999,90
772,34	3001,98
772,78	3001,55
773,21	2999,50
773,65	3001,20
774,09	2998,72
774,53	3000,70
774,97	2999,80
775,41	2999,55
775,84	3000,48
776,28	3000,98
776,72	3000,32
777,16	2998,15
777,60	2999,88
778,04	3000,55
778,47	2998,48
778,91	3000,60
779,35	2999,85
779,79	3001,35
780,23	2999,32
780,66	3001,58
781,10	2998,82
781,54	2999,60
781,98	3001,72
782,42	2999,60
782,85	3000,18
783,29	3000,58
783,73	3002,88
784,17	3000,95
784,61	3001,28
785,04	3000,45
785,48	3002,28
785,92	3000,55
786,36	2999,58
786,79	3000,05
787,23	3000,32
787,67	3000,90
788,11	3001,65
788,54	3000,52
788,98	3000,48
789,42	3000,60
789,86	3000,32
790,29	3001,82
790,73	3000,98
791,17	3001,78
791,60	2999,72
792,04	3000,50
792,48	3000,05
792,92	3000,72
793,35	3000,75
793,79	3000,45
794,23	2999,35
794,67	3000,65
795,10	3000,92
795,54	3000,68
795,98	3000,55
796,41	3000,52
796,85	2999,80
797,29	3004,12
797,72	3001,85
798,16	3000,52
798,60	3000,40
799,03	3000,52
799,47	2999,78
799,91	3001,22
800,34	3000,15
800,78	3000,28
801,22	2999,62
801,65	2998,85
802,09	2999,32
802,53	3001,58
802,96	3001,98
803,40	3000,32
803,84	3000,78
804,27	3001,00
804,71	3000,28
805,15	2999,92
805,58	3001,15
806,02	3000,75
806,46	3001,25
806,89	3001,55
807,33	3001,78
807,76	3001,18
808,20	3000,08
808,64	3000,05
809,07	3001,72
809,51	3003,55
809,95	3001,58
810,38	3001,40
810,82	3003,70
811,25	2999,32
811,69	3000,88
812,13	2999,75
812,56	3001,65
813,00	3000,38
813,43	2999,78
813,87	2999,75
814,30	3000,90
814,74	3001,95
815,18	3003,58
815,61	3001,88
816,05	2999,88
816,48	3001,10
816,92	3000,88
817,35	3001,85
817,79	3001,28
818,23	2999,10
818,66	3000,95
819,10	3000,18
819,53	2998,70
819,97	3001,85
820,40	2998,90
820,84	3001,18
821,27	3000,10
821,71	3001,60
822,14	3000,98
822,58	3000,72
823,01	3001,48
823,45	3000,25
823,88	3002,55
824,32	2999,45
824,75	3000,78
825,19	2999,32
825,63	3001,35
826,06	3000,15
826,50	2999,85
826,93	2999,70
827,37	2999,75
827,80	3001,28
828,23	2999,55
828,67	2999,40
829,10	3001,48
829,54	3000,28
829,97	2999,38
830,41	3000,48
830,84	3001,20
831,28	3000,58
831,71	3001,62
832,15	3000,82
832,58	3000,95
833,02	3000,38
833,45	3001,42
833,89	3001,85
834,32	2999,28
834,75	3003,08
835,19	3001,00
835,62	3001,52
836,06	2999,28
836,49	3001,28
836,93	2999,85
837,36	3001,58
837,79	3000,25
838,23	3000,32
838,66	3000,92
839,10	3000,52
839,53	2999,78
839,97	3000,35
840,40	2999,92
840,83	3001,00
841,27	2999,30
841,70	3000,48
842,14	3001,62
842,57	3000,70
843,00	3001,15
843,44	3003,50
843,87	3000,40
844,31	3001,15
844,74	2999,38
845,17	3000,00
845,61	3000,28
846,04	2998,98
846,47	3001,00
846,91	2999,80
847,34	3000,90
847,77	2999,40
848,21	3001,00
848,64	3000,52
849,08	3000,70
849,51	3000,08
849,94	3000,90
850,38	2998,92
850,81	3000,68
851,24	3001,18
851,68	3000,45
852,11	3000,15
852,54	3000,48
852,98	3000,95
853,41	3001,02
853,84	3000,10
854,28	3002,00
854,71	2999,40
855,14	3001,55
855,57	3001,50
856,01	2999,58
856,44	3000,18
856,87	3001,25
857,31	2999,48
857,74	3001,95
858,17	2999,38
858,61	3000,85
859,04	3001,98
859,47	3001,72
859,90	2999,60
860,34	3001,20
860,77	2999,65
861,20	3000,22
861,63	3001,15
862,07	3000,65
862,50	2998,30
862,93	2999,90
863,37	2999,95
863,80	3001,32
864,23	3000,88
864,66	3001,78
865,10	2999,78
865,53	3000,72
865,96	2999,65
866,39	3001,90
866,82	3001,80
867,26	2999,18
867,69	3000,30
868,12	3000,42
868,55	2998,95
868,99	3000,88
869,42	2999,18
869,85	3000,68
870,28	2999,12
870,71	2999,62
871,15	3000,62
871,58	3000,20
872,01	3001,78
872,44	3000,40
872,87	3003,48
873,31	3003,72
873,74	2998,35
874,17	3001,92
874,60	2999,68
875,03	3000,38
875,47	2999,82
875,90	3001,20
876,33	2999,88
876,76	3001,12
877,19	3000,78
877,62	3001,25
878,06	2999,65
878,49	3001,62
878,92	2998,98
879,35	3000,10
879,78	3001,12
880,21	2999,52
880,64	3000,25
881,08	3000,70
881,51	2998,82
881,94	3000,32
882,37	3000,85
882,80	2998,82
883,23	3001,42
883,66	2999,62
884,09	3001,80
884,53	2999,45
884,96	3000,55
885,39	3000,15
885,82	3000,25
886,25	3001,78
886,68	2998,60
887,11	3000,98
887,54	2999,22
887,97	3002,02
888,40	3000,60
888,84	3000,25
889,27	2999,38
889,70	3000,92
890,13	3000,48
890,56	3000,20
890,99	2999,12
891,42	3001,00
891,85	3003,65
892,28	2999,45
892,71	3000,88
893,14	2999,95
893,57	3000,35
894,00	3002,20
894,43	3000,60
894,86	3000,70
895,29	2998,90
895,73	3000,08
896,16	3000,00
896,59	3000,00
897,02	3000,78
897,45	3001,00
897,88	2999,65
898,31	3000,72
898,74	2999,40
899,17	3000,90
899,60	2999,80
900,03	2999,68
900,46	3000,18
900,89	3000,60
901,32	3000,12
901,75	3000,00
902,18	3000,90
902,61	3000,75
903,04	3000,90
903,47	3001,82
903,90	2999,78
904,33	3002,05
904,76	3004,00
905,19	3001,20
905,62	3000,15
906,05	3002,42
906,48	2999,35
906,91	3000,55
907,34	2999,40
907,76	2999,50
908,19	3000,50
908,62	3001,72
909,05	3000,30
909,48	3001,62
909,91	3000,70
910,34	3001,20
910,77	3001,15
911,20	3001,42
911,63	2998,95
912,06	3000,18
912,49	3000,78
912,92	3000,02
913,35	3000,30
913,78	3000,12
914,21	2999,88
914,63	3000,20
915,06	3001,90
915,49	2998,95
915,92	3001,48
916,35	3000,15
916,78	3000,02
917,21	3000,08
917,64	3001,05
918,07	2999,40
918,50	3000,98
918,92	2999,60
919,35	3000,58
919,78	3000,75
920,21	3002,12
920,64	2999,85
921,07	3002,08
921,50	2999,15
921,93	3001,10
922,35	3000,25
922,78	3001,72
923,21	3000,85
923,64	3001,55
924,07	2999,82
924,50	3000,52
924,92	2999,25
925,35	3001,08
925,78	3001,12
926,21	3002,72
926,64	2999,50
927,07	3002,28
927,49	2999,62
927,92	3002,98
928,35	3001,75
928,78	3001,28
929,21	3000,48
929,64	3001,52
930,06	3002,60
930,49	3000,20
930,92	3000,92
931,35	3001,05
931,78	2999,65
932,20	3001,25
932,63	3000,42
933,06	3001,40
933,49	3000,88
933,92	3001,45
934,34	3000,82
934,77	3002,10
935,20	3002,00
935,63	3002,70
936,05	3000,00
936,48	3001,32
936,91	3000,70
937,34	3001,45
937,76	2997,95
938,19	3000,02
938,62	3002,25
939,05	3001,65
939,47	2999,65
939,90	3001,15
940,33	3000,85
940,76	3000,38
941,18	3000,90
941,61	2999,20
942,04	2999,95
942,47	3000,88
942,89	3002,40
943,32	3000,62
943,75	3001,20
944,17	3000,18
944,60	3000,08
945,03	2998,22
945,46	3000,52
945,88	3000,20
946,31	3001,70
946,74	2999,25
947,16	3001,08
947,59	3000,95
948,02	3001,82
948,44	2999,48
948,87	3001,25
949,30	3000,48
949,72	2999,95
950,15	3001,92
950,58	3000,32
951,00	2999,25
951,43	2999,30
951,86	3003,35
952,28	3002,35
952,71	2998,98
953,14	3000,00
953,56	3000,50
953,99	3000,08
954,42	3001,00
954,84	3000,12
955,27	3001,38
955,70	2999,25
956,12	2999,90
956,55	2999,78
956,98	3000,45
957,40	2999,70
957,83	3000,28
958,25	2999,52
958,68	3000,75
959,11	3002,55
959,53	2999,92
959,96	2999,75
960,38	3000,02
960,81	3000,18
961,24	3000,38
961,66	3000,32
962,09	3000,45
962,51	3000,32
962,94	3002,15
963,37	3002,22
963,79	3002,28
964,22	3001,00
964,64	2999,75
965,07	2999,68
965,49	2999,68
965,92	3002,22
966,35	3001,40
966,77	3000,68
967,20	3002,58
967,62	3000,58
968,05	3002,10
968,47	3000,58
968,90	2999,82
969,32	3000,88
969,75	3000,92
970,17	3002,38
970,60	3000,85
971,03	3001,62
971,45	3001,45
971,88	3000,35
972,30	3001,00
972,73	3000,80
973,15	2999,45
973,58	3000,05
974,00	3000,88
974,43	3001,12
974,85	3000,20
975,28	2999,38
975,70	3001,45
976,13	3001,05
976,55	3000,70
976,98	2999,32
977,40	2999,15
977,83	2999,02
978,25	3000,50
978,68	2999,80
979,10	3001,30
979,53	3000,95
979,95	3000,52
980,37	3000,68
980,80	2998,02
981,22	3001,92
981,65	3000,18
982,07	2999,52
982,50	3000,50
982,92	3002,12
983,35	2999,38
983,77	3001,15
984,20	3000,80
984,62	2999,55
985,04	2998,62
985,47	3002,72
985,89	2999,62
986,32	3000,08
986,74	2997,80
987,17	3000,80
987,59	3001,48
988,01	3000,15
988,44	2999,32
988,86	2999,15
989,29	3000,98
989,71	3001,32
990,13	3000,85
990,56	3001,30
990,98	2999,55
991,41	2999,62
991,83	3000,15
992,25	2999,58
992,68	3002,55
993,10	3000,75
993,53	2999,52
993,95	2999,15
994,37	3000,68
994,80	3000,62
995,22	2999,68
995,64	3001,12
996,07	3001,98
996,49	3001,82
996,91	2998,78
997,34	3000,00
997,76	2997,78
998,18	2998,98
998,61	3000,65
999,03	3000,18
999,45	2999,42
999,88	2999,90
1000,30	2997,25
1000,72	3001,20
1001,15	3001,82
1001,57	3001,45
1001,99	3001,68
1002,42	2999,25
1002,84	3000,75
1003,26	3001,80
1003,69	3000,98
1004,11	3000,28
1004,53	2999,30
1004,96	3000,40
1005,38	2999,52
1005,80	3001,55
1006,22	3001,22
1006,65	3000,75
1007,07	3000,35
1007,49	2998,88
1007,92	3002,28
1008,34	3000,42
1008,76	3001,78
1009,18	3000,00
1009,61	3000,95
1010,03	3000,45
1010,45	3002,45
1010,87	3002,05
1011,30	3001,20
1011,72	3001,68
1012,14	3000,98
1012,56	3000,78
1012,99	2999,40
1013,41	3002,15
1013,83	3000,95
1014,25	3000,00
1014,68	3001,72
1015,10	2999,85
1015,52	3002,10
1015,94	2999,30
1016,37	2999,88
1016,79	2999,75
1017,21	3001,55
1017,63	3000,65
1018,05	3001,22
1018,48	3002,18
1018,90	3000,22
1019,32	2999,40
1019,74	2998,98
1020,16	3003,22
1020,59	3001,30
1021,01	3001,12
1021,43	3000,52
1021,85	2999,72
1022,27	3000,55
1022,69	3000,28
1023,12	2999,92
1023,54	3002,00
1023,96	3003,05
1024,38	3001,28
1024,80	3000,85
1025,22	3001,40
1025,65	3002,18
1026,07	3000,12
1026,49	3001,35
1026,91	3001,05
1027,33	3000,98
1027,75	3002,20
1028,17	3000,65
1028,60	3000,50
1029,02	2999,95
1029,44	3000,98
1029,86	2998,75
1030,28	3001,50
1030,70	3001,30
1031,12	3000,82
1031,54	3001,80
1031,97	3002,68
1032,39	2999,20
1032,81	3000,42
1033,23	2999,65
1033,65	2999,92
1034,07	3002,15
1034,49	2998,68
1034,91	3001,08
1035,33	3001,70
1035,75	3000,70
1036,18	2998,10
1036,60	3003,42
1037,02	2999,62
1037,44	2998,75
1037,86	3000,75
1038,28	3000,32
1038,70	3001,80
1039,12	3000,10
1039,54	3000,30
1039,96	3001,95
1040,38	3001,82
1040,80	3001,85
1041,22	3000,95
1041,64	3001,20
1042,06	3000,75
1042,48	3000,65
1042,90	3000,92
1043,32	3000,95
1043,74	3001,25
1044,17	3001,65
1044,59	3000,02
1045,01	2999,90
1045,43	2999,42
1045,85	3000,42
1046,27	3000,02
1046,69	2999,98
1047,11	3001,18
1047,53	2999,65
1047,95	3001,40
1048,37	2999,45
1048,79	3000,28
1049,21	3001,70
1049,63	3000,38
1050,05	3001,90
1050,47	2999,18
1050,89	2998,85
1051,31	2999,60
1051,72	3002,15
1052,14	3000,35
1052,56	3001,20
1052,98	2999,62
1053,40	3001,78
1053,82	3000,48
1054,24	3001,75
1054,66	2999,18
1055,08	2999,95
1055,50	2998,68
1055,92	3001,30
1056,34	3001,55
1056,76	3002,38
1057,18	3002,18
1057,60	3000,80
1058,02	3000,48
1058,44	3002,00
1058,86	3000,12
1059,28	3000,68
1059,69	3003,08
1060,11	2998,92
1060,53	3001,52
1060,95	3000,18
1061,37	3001,15
1061,79	2999,75
1062,21	3000,38
1062,63	3000,88
1063,05	3000,05
1063,47	3001,52
1063,88	2999,40
1064,30	3001,12
1064,72	3001,52
1065,14	3000,42
1065,56	3000,52
1065,98	2999,40
1066,40	2998,60
1066,82	3001,58
1067,23	3000,80
1067,65	3000,15
1068,07	2999,98
1068,49	2998,95
1068,91	3001,88
1069,33	3001,88
1069,75	3000,70
1070,16	3000,12
1070,58	3001,55
1071,00	3002,08
1071,42	3001,02
1071,84	2999,95
1072,26	3000,88
1072,67	3000,00
1073,09	2999,12
1073,51	2999,70
1073,93	3002,12
1074,35	3000,92
1074,77	2998,78
1075,18	3000,35
1075,60	3001,00
1076,02	3002,38
1076,44	3000,22
1076,86	3000,88
1077,27	3001,88
1077,69	3002,18
1078,11	2998,65
1078,53	3002,18
1078,94	3002,12
1079,36	2999,38
1079,78	2999,65
1080,20	3001,02
1080,62	3000,45
1081,03	2999,28
1081,45	3001,30
1081,87	3000,35
1082,29	2999,82
1082,70	3001,10
1083,12	3000,60
1083,54	3000,38
1083,96	2999,95
1084,37	3000,00
1084,79	3000,72
1085,21	3000,22
1085,63	3001,82
1086,04	2999,98
1086,46	3000,48
1086,88	2999,42
1087,30	2998,95
1087,71	3000,28
1088,13	3041,12
1088,55	3000,95
1088,96	2999,48
1089,38	3001,12
1089,80	3002,25
1090,22	3001,05
1090,63	3001,05
1091,05	2999,85
1091,47	3001,30
1091,88	3000,25
1092,30	3000,30
1092,72	3000,65
1093,13	3000,68
1093,55	3001,78
1093,97	2998,85
1094,38	2999,10
1094,80	2999,85
1095,22	3000,75
1095,63	3000,58
1096,05	3001,70
1096,47	3000,45
1096,88	2999,32
1097,30	3000,50
1097,72	3001,40
1098,13	3001,32
1098,55	3000,48
1098,97	3001,95
1099,38	3000,70
1099,80	3000,05
1100,21	3000,12
1100,63	3001,62
1101,05	3000,32
1101,46	3001,98
1101,88	3000,42
1102,30	3000,45
1102,71	3000,98
1103,13	3000,45
1103,54	3000,05
1103,96	3000,85
1104,38	3002,32
1104,79	3000,92
1105,21	2998,88
1105,62	3000,90
1106,04	3000,80
1106,46	3000,70
1106,87	2999,22
1107,29	3000,85
1107,70	3000,92
1108,12	3000,88
1108,54	3000,82
1108,95	3000,80
1109,37	3000,40
1109,78	2998,32
1110,20	3000,38
1110,61	2998,62
1111,03	2998,62
1111,44	2998,62
1111,86	2998,62
1112,28	2998,62
1112,69	2998,62
1113,11	2998,62
1113,52	2998,62
1113,94	2998,62
1114,35	2998,62
1114,77	2998,62
1115,18	2998,62
1115,60	2998,62
1116,01	2998,62
1116,43	2998,62
1116,84	2998,62
1117,26	2998,62
1117,67	2998,62
1118,09	2998,62
1118,50	2998,62
1118,92	2998,62
>>>>>End Processed Spectral Data<<<<<
