SpectraSuite Data File
++++++++++++++++++++++++++++++++++++
Date: Tue Jul 12 15:35:34 EEST 2011
User: OO Maya
Dark Spectrum Present: No
Reference Spectrum Present: No
Number of Sampled Component Spectra: 1
Spectrometers: MAYP11278
Integration Time (usec): 6000 (MAYP11278)
Spectra Averaged: 40 (MAYP11278)
Boxcar Smoothing: 0 (MAYP11278)
Correct for Electrical Dark: No (MAYP11278)
Strobe/Lamp Enabled: No (MAYP11278)
Correct for Detector Non-linearity: No (MAYP11278)
Correct for Stray Light: No (MAYP11278)
Number of Pixels in Processed Spectrum: 2068
>>>>>Begin Processed Spectral Data<<<<<
200,00	3025,52
200,47	3006,02
200,95	3004,60
201,42	3001,52
201,89	3012,02
202,37	3009,78
202,84	3010,25
203,31	3010,88
203,79	3013,38
204,26	3013,15
204,73	3014,52
205,20	3013,98
205,68	3015,02
206,15	3014,48
206,62	3016,58
207,10	3015,45
207,57	3015,08
208,04	3013,35
208,51	3014,10
208,99	3015,50
209,46	3013,35
209,93	3012,95
210,41	3013,08
210,88	3013,48
211,35	3015,02
211,82	3014,00
212,30	3013,32
212,77	3013,92
213,24	3014,05
213,71	3014,98
214,19	3015,72
214,66	3012,80
215,13	3016,30
215,60	3012,60
216,08	3014,05
216,55	3016,28
217,02	3014,52
217,49	3012,98
217,96	3015,30
218,44	3014,10
218,91	3013,78
219,38	3015,28
219,85	3014,22
220,33	3012,65
220,80	3014,52
221,27	3015,55
221,74	3014,85
222,21	3014,52
222,69	3014,28
223,16	3015,10
223,63	3015,42
224,10	3012,78
224,57	3013,10
225,04	3015,78
225,52	3013,35
225,99	3016,62
226,46	3013,75
226,93	3013,40
227,40	3015,58
227,87	3014,80
228,35	3015,72
228,82	3013,18
229,29	3013,58
229,76	3015,90
230,23	3016,10
230,70	3012,35
231,18	3015,48
231,65	3014,92
232,12	3012,00
232,59	3014,95
233,06	3014,35
233,53	3016,70
234,00	3012,08
234,48	3014,00
234,95	3013,85
235,42	3014,98
235,89	3014,72
236,36	3014,15
236,83	3014,05
237,30	3013,75
237,77	3014,90
238,24	3013,32
238,72	3014,12
239,19	3014,82
239,66	3012,15
240,13	3012,90
240,60	3015,25
241,07	3012,98
241,54	3014,15
242,01	3012,78
242,48	3014,35
242,95	3013,48
243,42	3013,20
243,90	3013,15
244,37	3013,52
244,84	3013,82
245,31	3013,45
245,78	3016,38
246,25	3013,42
246,72	3013,55
247,19	3013,78
247,66	3011,08
248,13	3016,02
248,60	3015,52
249,07	3012,42
249,54	3014,30
250,01	3012,38
250,48	3013,78
250,95	3012,35
251,42	3012,12
251,89	3014,60
252,36	3015,80
252,83	3014,40
253,30	3012,78
253,77	3014,45
254,24	3014,52
254,71	3013,55
255,18	3013,32
255,65	3014,20
256,12	3015,55
256,59	3013,55
257,06	3014,88
257,53	3014,55
258,00	3014,68
258,47	3015,15
258,94	3013,32
259,41	3012,12
259,88	3013,28
260,35	3014,38
260,82	3013,08
261,29	3014,28
261,76	3012,62
262,23	3013,50
262,70	3014,02
263,17	3015,82
263,64	3017,02
264,11	3014,28
264,58	3014,05
265,05	3013,80
265,52	3013,18
265,99	3015,52
266,46	3014,00
266,93	3015,68
267,40	3014,20
267,87	3014,12
268,34	3014,48
268,81	3015,28
269,28	3014,98
269,74	3013,15
270,21	3013,78
270,68	3016,02
271,15	3015,62
271,62	3014,52
272,09	3012,65
272,56	3013,18
273,03	3015,60
273,50	3013,80
273,97	3014,45
274,44	3014,48
274,90	3011,85
275,37	3014,65
275,84	3015,20
276,31	3012,68
276,78	3014,15
277,25	3014,05
277,72	3014,20
278,19	3015,50
278,66	3014,38
279,12	3013,68
279,59	3014,98
280,06	3014,55
280,53	3014,72
281,00	3014,68
281,47	3015,80
281,94	3014,95
282,40	3015,85
282,87	3014,00
283,34	3013,12
283,81	3013,48
284,28	3013,18
284,75	3013,95
285,21	3015,98
285,68	3014,75
286,15	3015,65
286,62	3014,62
287,09	3013,95
287,56	3016,38
288,02	3014,30
288,49	3013,92
288,96	3014,08
289,43	3015,00
289,90	3016,58
290,36	3015,12
290,83	3013,50
291,30	3018,00
291,77	3014,40
292,24	3018,10
292,70	3014,38
293,17	3013,42
293,64	3014,18
294,11	3015,38
294,58	3015,35
295,04	3014,72
295,51	3014,80
295,98	3015,20
296,45	3015,88
296,91	3015,60
297,38	3015,05
297,85	3015,05
298,32	3015,95
298,79	3015,62
299,25	3014,45
299,72	3015,28
300,19	3014,68
300,66	3015,12
301,12	3013,32
301,59	3014,75
302,06	3012,98
302,52	3015,60
302,99	3014,75
303,46	3013,28
303,93	3015,52
304,39	3014,08
304,86	3016,30
305,33	3014,32
305,80	3013,62
306,26	3014,22
306,73	3013,75
307,20	3016,20
307,66	3014,28
308,13	3015,08
308,60	3014,38
309,07	3014,98
309,53	3013,48
310,00	3014,08
310,47	3014,20
310,93	3015,50
311,40	3013,30
311,87	3014,55
312,33	3015,28
312,80	3012,58
313,27	3014,30
313,73	3013,80
314,20	3014,30
314,67	3012,88
315,13	3014,20
315,60	3013,90
316,07	3012,62
316,53	3014,70
317,00	3014,72
317,47	3015,25
317,93	3013,60
318,40	3013,20
318,87	3014,98
319,33	3014,12
319,80	3015,50
320,26	3015,88
320,73	3015,02
321,20	3014,82
321,66	3014,40
322,13	3014,78
322,60	3014,68
323,06	3014,00
323,53	3015,85
323,99	3012,72
324,46	3015,25
324,93	3012,45
325,39	3013,38
325,86	3014,58
326,32	3014,75
326,79	3014,08
327,26	3015,15
327,72	3014,85
328,19	3013,90
328,65	3015,68
329,12	3013,60
329,59	3012,58
330,05	3013,50
330,52	3014,70
330,98	3014,65
331,45	3013,75
331,91	3014,55
332,38	3013,42
332,85	3012,78
333,31	3014,88
333,78	3013,58
334,24	3013,62
334,71	3013,40
335,17	3013,10
335,64	3014,42
336,10	3013,68
336,57	3013,22
337,03	3014,12
337,50	3013,98
337,96	3013,18
338,43	3015,05
338,90	3011,70
339,36	3014,22
339,83	3013,55
340,29	3015,48
340,76	3013,02
341,22	3013,38
341,69	3013,35
342,15	3017,25
342,62	3013,92
343,08	3016,50
343,55	3015,72
344,01	3015,12
344,48	3015,62
344,94	3014,48
345,41	3014,62
345,87	3017,88
346,34	3012,60
346,80	3015,62
347,27	3014,20
347,73	3015,15
348,19	3013,58
348,66	3013,28
349,12	3014,82
349,59	3015,35
350,05	3015,32
350,52	3014,45
350,98	3013,52
351,45	3014,52
351,91	3016,22
352,38	3013,82
352,84	3013,38
353,30	3014,28
353,77	3014,32
354,23	3014,45
354,70	3013,08
355,16	3015,22
355,63	3014,70
356,09	3015,00
356,55	3014,80
357,02	3015,12
357,48	3015,35
357,95	3011,85
358,41	3016,02
358,87	3015,32
359,34	3013,02
359,80	3013,70
360,27	3015,95
360,73	3015,15
361,19	3014,45
361,66	3014,70
362,12	3016,10
362,59	3014,02
363,05	3013,78
363,51	3015,55
363,98	3014,20
364,44	3014,82
364,91	3015,20
365,37	3015,35
365,83	3015,38
366,30	3014,95
366,76	3016,50
367,22	3013,52
367,69	3019,55
368,15	3015,15
368,61	3013,48
369,08	3013,42
369,54	3013,90
370,00	3013,50
370,47	3016,18
370,93	3016,40
371,39	3012,68
371,86	3014,42
372,32	3015,08
372,78	3014,98
373,25	3014,12
373,71	3017,60
374,17	3014,65
374,64	3014,42
375,10	3015,00
375,56	3012,62
376,03	3013,92
376,49	3014,38
376,95	3015,22
377,42	3015,18
377,88	3013,30
378,34	3014,05
378,80	3015,42
379,27	3013,18
379,73	3013,92
380,19	3015,05
380,66	3013,98
381,12	3013,12
381,58	3014,70
382,04	3013,75
382,51	3013,65
382,97	3014,28
383,43	3012,70
383,89	3013,05
384,36	3013,55
384,82	3014,15
385,28	3011,98
385,74	3014,95
386,21	3014,95
386,67	3013,22
387,13	3012,55
387,59	3015,42
388,06	3015,12
388,52	3012,70
388,98	3014,28
389,44	3013,72
389,91	3014,15
390,37	3014,38
390,83	3013,45
391,29	3016,42
391,75	3013,40
392,22	3012,90
392,68	3014,05
393,14	3013,60
393,60	3015,32
394,06	3013,48
394,53	3017,98
394,99	3014,10
395,45	3012,58
395,91	3015,50
396,37	3015,62
396,84	3013,90
397,30	3014,60
397,76	3013,92
398,22	3015,78
398,68	3015,25
399,14	3014,35
399,61	3014,58
400,07	3013,15
400,53	3013,22
400,99	3015,95
401,45	3014,25
401,91	3013,25
402,38	3013,15
402,84	3012,80
403,30	3015,65
403,76	3013,65
404,22	3016,32
404,68	3015,22
405,14	3014,05
405,61	3018,00
406,07	3012,70
406,53	3017,02
406,99	3015,32
407,45	3013,38
407,91	3012,42
408,37	3015,70
408,83	3012,92
409,29	3015,42
409,76	3014,00
410,22	3016,55
410,68	3012,95
411,14	3016,12
411,60	3013,62
412,06	3015,65
412,52	3013,98
412,98	3015,20
413,44	3014,85
413,90	3015,42
414,36	3016,28
414,83	3015,60
415,29	3013,02
415,75	3015,68
416,21	3015,05
416,67	3015,20
417,13	3013,02
417,59	3015,42
418,05	3014,22
418,51	3014,72
418,97	3016,92
419,43	3015,60
419,89	3016,10
420,35	3014,95
420,81	3016,52
421,27	3014,62
421,73	3013,70
422,19	3014,82
422,65	3015,58
423,11	3015,78
423,57	3015,50
424,03	3015,50
424,49	3015,10
424,96	3017,88
425,42	3016,45
425,88	3014,55
426,34	3017,22
426,80	3015,50
427,26	3016,48
427,72	3015,50
428,18	3015,62
428,64	3016,10
429,10	3014,75
429,56	3016,58
430,02	3015,38
430,47	3015,50
430,93	3015,28
431,39	3015,25
431,85	3015,68
432,31	3016,60
432,77	3016,55
433,23	3018,02
433,69	3016,30
434,15	3015,48
434,61	3016,25
435,07	3016,28
435,53	3015,88
435,99	3017,80
436,45	3015,92
436,91	3015,12
437,37	3014,48
437,83	3017,30
438,29	3016,02
438,75	3016,48
439,21	3014,65
439,67	3017,62
440,12	3014,80
440,58	3015,90
441,04	3017,35
441,50	3015,88
441,96	3017,10
442,42	3015,80
442,88	3016,08
443,34	3017,12
443,80	3015,72
444,26	3015,92
444,72	3016,32
445,17	3015,08
445,63	3015,88
446,09	3014,92
446,55	3017,28
447,01	3015,95
447,47	3016,32
447,93	3016,65
448,39	3019,38
448,85	3016,35
449,30	3017,05
449,76	3015,92
450,22	3015,98
450,68	3015,82
451,14	3018,62
451,60	3015,22
452,06	3017,52
452,51	3017,68
452,97	3015,70
453,43	3016,52
453,89	3017,75
454,35	3016,38
454,81	3017,20
455,26	3015,85
455,72	3015,30
456,18	3015,98
456,64	3016,90
457,10	3015,58
457,56	3016,50
458,01	3017,05
458,47	3017,55
458,93	3015,58
459,39	3016,68
459,85	3015,50
460,30	3017,10
460,76	3017,05
461,22	3015,68
461,68	3018,15
462,14	3016,22
462,59	3016,88
463,05	3016,40
463,51	3016,85
463,97	3017,02
464,43	3016,98
464,88	3016,95
465,34	3017,00
465,80	3017,42
466,26	3016,62
466,71	3016,82
467,17	3013,92
467,63	3016,12
468,09	3016,42
468,54	3015,90
469,00	3015,78
469,46	3016,62
469,92	3018,68
470,37	3015,95
470,83	3016,92
471,29	3015,65
471,75	3016,00
472,20	3015,35
472,66	3019,25
473,12	3017,45
473,58	3016,85
474,03	3015,42
474,49	3017,95
474,95	3016,95
475,40	3016,60
475,86	3017,85
476,32	3017,78
476,78	3017,10
477,23	3017,35
477,69	3017,82
478,15	3014,98
478,60	3018,30
479,06	3015,78
479,52	3016,25
479,97	3017,60
480,43	3015,55
480,89	3016,12
481,34	3017,62
481,80	3018,50
482,26	3014,88
482,71	3017,20
483,17	3016,98
483,63	3016,08
484,08	3017,02
484,54	3016,38
485,00	3017,45
485,45	3015,35
485,91	3018,18
486,37	3019,15
486,82	3016,20
487,28	3019,60
487,74	3018,18
488,19	3018,98
488,65	3017,25
489,10	3016,42
489,56	3016,65
490,02	3016,78
490,47	3017,22
490,93	3018,00
491,39	3017,40
491,84	3015,75
492,30	3015,65
492,75	3018,65
493,21	3017,25
493,67	3016,60
494,12	3016,42
494,58	3016,15
495,03	3017,20
495,49	3017,30
495,95	3017,60
496,40	3017,28
496,86	3017,22
497,31	3017,85
497,77	3018,08
498,23	3016,35
498,68	3017,78
499,14	3017,28
499,59	3016,52
500,05	3018,52
500,50	3016,05
500,96	3018,60
501,41	3019,88
501,87	3019,18
502,33	3018,50
502,78	3016,32
503,24	3018,08
503,69	3018,92
504,15	3018,30
504,60	3018,40
505,06	3017,45
505,51	3020,32
505,97	3019,65
506,42	3017,42
506,88	3018,75
507,33	3018,50
507,79	3021,20
508,24	3018,85
508,70	3016,70
509,15	3020,12
509,61	3017,70
510,06	3018,78
510,52	3019,68
510,97	3019,08
511,43	3020,65
511,88	3018,48
512,34	3018,68
512,79	3019,30
513,25	3019,12
513,70	3016,92
514,16	3018,68
514,61	3020,28
515,07	3018,98
515,52	3017,48
515,98	3020,28
516,43	3018,95
516,89	3018,80
517,34	3017,22
517,80	3018,68
518,25	3019,95
518,70	3019,28
519,16	3020,10
519,61	3022,20
520,07	3019,22
520,52	3017,40
520,98	3017,80
521,43	3020,28
521,89	3019,05
522,34	3021,22
522,79	3021,30
523,25	3017,02
523,70	3019,62
524,16	3019,85
524,61	3022,48
525,06	3020,72
525,52	3022,08
525,97	3019,05
526,43	3022,50
526,88	3018,48
527,33	3019,70
527,79	3018,38
528,24	3017,60
528,70	3021,18
529,15	3019,82
529,60	3018,15
530,06	3018,20
530,51	3019,80
530,97	3020,68
531,42	3018,28
531,87	3018,90
532,33	3019,92
532,78	3020,48
533,23	3019,98
533,69	3020,22
534,14	3020,12
534,59	3019,38
535,05	3018,82
535,50	3017,72
535,96	3021,05
536,41	3019,82
536,86	3020,00
537,32	3019,50
537,77	3017,35
538,22	3019,78
538,68	3019,52
539,13	3019,92
539,58	3021,48
540,03	3020,00
540,49	3021,72
540,94	3019,92
541,39	3018,75
541,85	3019,62
542,30	3021,40
542,75	3019,82
543,21	3018,92
543,66	3021,58
544,11	3020,12
544,57	3018,72
545,02	3019,98
545,47	3019,88
545,92	3020,32
546,38	3023,38
546,83	3020,92
547,28	3024,70
547,73	3021,20
548,19	3022,60
548,64	3020,92
549,09	3020,15
549,55	3022,10
550,00	3022,82
550,45	3021,15
550,90	3024,02
551,36	3020,65
551,81	3024,12
552,26	3021,68
552,71	3021,08
553,17	3022,20
553,62	3023,05
554,07	3024,58
554,52	3023,60
554,97	3022,88
555,43	3025,00
555,88	3022,08
556,33	3023,80
556,78	3023,48
557,24	3026,45
557,69	3024,62
558,14	3022,85
558,59	3024,90
559,04	3026,38
559,50	3027,30
559,95	3026,55
560,40	3025,28
560,85	3028,02
561,30	3025,90
561,76	3027,58
562,21	3026,52
562,66	3029,50
563,11	3029,62
563,56	3030,20
564,01	3030,10
564,47	3030,50
564,92	3031,15
565,37	3034,22
565,82	3033,70
566,27	3032,98
566,72	3033,52
567,18	3035,50
567,63	3036,02
568,08	3037,60
568,53	3038,35
568,98	3040,62
569,43	3039,20
569,88	3041,40
570,34	3043,02
570,79	3044,85
571,24	3045,85
571,69	3047,42
572,14	3048,12
572,59	3051,48
573,04	3051,35
573,49	3054,22
573,94	3057,08
574,40	3058,70
574,85	3060,80
575,30	3061,80
575,75	3065,50
576,20	3068,05
576,65	3071,90
577,10	3074,98
577,55	3077,95
578,00	3080,30
578,45	3084,60
578,91	3088,15
579,36	3092,45
579,81	3098,72
580,26	3103,55
580,71	3111,80
581,16	3114,60
581,61	3120,90
582,06	3128,45
582,51	3133,88
582,96	3140,60
583,41	3146,72
583,86	3159,88
584,31	3162,32
584,76	3173,45
585,21	3184,78
585,66	3194,98
586,11	3208,38
586,56	3220,10
587,01	3230,80
587,46	3244,40
587,92	3258,15
588,37	3271,12
588,82	3287,40
589,27	3304,12
589,72	3317,62
590,17	3340,22
590,62	3357,98
591,07	3377,45
591,52	3399,80
591,97	3421,02
592,42	3443,68
592,87	3469,20
593,32	3493,20
593,77	3516,02
594,22	3545,32
594,67	3577,75
595,12	3605,02
595,56	3640,68
596,01	3674,55
596,46	3711,62
596,91	3752,62
597,36	3788,00
597,81	3830,12
598,26	3873,12
598,71	3918,65
599,16	3973,20
599,61	4020,35
600,06	4076,38
600,51	4129,22
600,96	4188,20
601,41	4252,32
601,86	4311,55
602,31	4381,85
602,76	4445,70
603,21	4525,00
603,66	4600,48
604,11	4679,78
604,55	4774,32
605,00	4864,58
605,45	4956,92
605,90	5048,00
606,35	5146,82
606,80	5261,30
607,25	5375,88
607,70	5496,82
608,15	5618,42
608,60	5756,52
609,04	5887,65
609,49	6036,28
609,94	6176,78
610,39	6344,80
610,84	6506,88
611,29	6678,08
611,74	6861,78
612,19	7044,22
612,64	7246,30
613,08	7444,15
613,53	7671,05
613,98	7892,85
614,43	8117,82
614,88	8381,22
615,33	8625,58
615,78	8904,88
616,22	9197,52
616,67	9490,92
617,12	9787,50
617,57	10115,80
618,02	10437,48
618,47	10798,60
618,91	11158,92
619,36	11538,62
619,81	11936,38
620,26	12355,32
620,71	12775,15
621,16	13203,60
621,60	13688,25
622,05	14151,28
622,50	14641,70
622,95	15119,55
623,40	15641,85
623,84	16168,88
624,29	16708,20
624,74	17276,58
625,19	17818,92
625,64	18412,92
626,08	19068,25
626,53	19691,85
626,98	20315,90
627,43	21034,32
627,87	21705,20
628,32	22464,18
628,77	23221,20
629,22	24054,58
629,66	24923,18
630,11	25821,12
630,56	26782,12
631,01	27735,38
631,46	28740,50
631,90	29877,22
632,35	30980,72
632,80	32144,80
633,25	33319,42
633,69	34573,62
634,14	35813,00
634,59	37060,38
635,03	38321,22
635,48	39593,82
635,93	40868,72
636,38	42128,30
636,82	43345,05
637,27	44536,22
637,72	45691,82
638,16	46862,68
638,61	48034,92
639,06	49221,72
639,51	50324,72
639,95	51344,75
640,40	52367,50
640,85	53213,35
641,29	53913,15
641,74	54470,58
642,19	54851,78
642,63	54952,92
643,08	54827,35
643,53	54308,78
643,97	53522,65
644,42	52400,18
644,87	50981,98
645,31	49323,18
645,76	47436,48
646,21	45432,48
646,65	43262,22
647,10	41054,55
647,55	38785,02
647,99	36584,65
648,44	34439,38
648,89	32453,35
649,33	30542,75
649,78	28765,65
650,23	27125,55
650,67	25578,70
651,12	24149,48
651,56	22825,02
652,01	21530,58
652,46	20427,95
652,90	19383,32
653,35	18396,72
653,80	17463,10
654,24	16543,48
654,69	15724,48
655,13	14945,95
655,58	14209,10
656,03	13556,80
656,47	12898,58
656,92	12270,35
657,36	11683,50
657,81	11101,20
658,26	10546,62
658,70	10071,05
659,15	9605,65
659,59	9160,40
660,04	8747,08
660,48	8347,25
660,93	7977,25
661,38	7637,42
661,82	7309,95
662,27	7023,28
662,71	6732,45
663,16	6470,35
663,60	6245,42
664,05	6023,28
664,49	5824,60
664,94	5624,20
665,38	5446,85
665,83	5291,70
666,28	5136,42
666,72	4996,75
667,17	4872,75
667,61	4752,55
668,06	4649,85
668,50	4544,45
668,95	4449,88
669,39	4350,68
669,84	4275,78
670,28	4198,40
670,73	4126,45
671,17	4059,40
671,62	3997,08
672,06	3941,98
672,51	3883,20
672,95	3832,40
673,40	3781,68
673,84	3730,20
674,29	3696,90
674,73	3651,15
675,18	3622,50
675,62	3579,52
676,07	3542,38
676,51	3511,88
676,95	3481,70
677,40	3453,18
677,84	3429,58
678,29	3401,85
678,73	3379,22
679,18	3361,55
679,62	3339,18
680,07	3317,88
680,51	3297,75
680,96	3280,80
681,40	3265,80
681,84	3251,55
682,29	3237,48
682,73	3222,02
683,18	3214,85
683,62	3206,68
684,07	3191,10
684,51	3181,75
684,95	3173,25
685,40	3165,92
685,84	3157,30
686,29	3151,42
686,73	3142,35
687,17	3134,88
687,62	3129,62
688,06	3124,05
688,51	3118,02
688,95	3111,32
689,39	3108,45
689,84	3105,48
690,28	3102,68
690,73	3097,15
691,17	3092,68
691,61	3088,58
692,06	3085,22
692,50	3083,48
692,94	3077,58
693,39	3074,22
693,83	3071,65
694,27	3071,90
694,72	3068,75
695,16	3064,82
695,60	3063,88
696,05	3061,70
696,49	3059,42
696,94	3058,58
697,38	3055,70
697,82	3054,50
698,27	3051,32
698,71	3050,10
699,15	3051,15
699,59	3046,95
700,04	3048,90
700,48	3045,38
700,92	3044,22
701,37	3044,00
701,81	3043,02
702,25	3040,72
702,70	3040,52
703,14	3039,52
703,58	3038,45
704,03	3038,95
704,47	3038,02
704,91	3035,60
705,35	3035,70
705,80	3035,40
706,24	3034,48
706,68	3035,82
707,13	3030,55
707,57	3035,60
708,01	3030,98
708,45	3032,18
708,90	3030,30
709,34	3031,60
709,78	3029,85
710,22	3030,70
710,67	3030,58
711,11	3030,28
711,55	3029,30
711,99	3028,98
712,44	3027,32
712,88	3027,28
713,32	3028,10
713,76	3027,20
714,21	3027,65
714,65	3026,62
715,09	3025,62
715,53	3028,10
715,97	3024,55
716,42	3026,78
716,86	3024,60
717,30	3025,40
717,74	3024,82
718,18	3028,18
718,63	3024,08
719,07	3024,08
719,51	3024,52
719,95	3026,02
720,39	3024,75
720,84	3024,42
721,28	3023,58
721,72	3023,32
722,16	3021,75
722,60	3022,32
723,04	3024,30
723,49	3025,28
723,93	3022,18
724,37	3022,85
724,81	3023,20
725,25	3022,58
725,69	3022,75
726,14	3022,78
726,58	3022,90
727,02	3021,88
727,46	3023,12
727,90	3022,22
728,34	3022,12
728,78	3022,65
729,23	3021,12
729,67	3023,30
730,11	3021,72
730,55	3021,18
730,99	3021,98
731,43	3021,48
731,87	3022,30
732,31	3019,82
732,76	3022,80
733,20	3025,45
733,64	3020,38
734,08	3021,90
734,52	3019,42
734,96	3021,30
735,40	3020,12
735,84	3021,45
736,28	3021,52
736,72	3020,20
737,16	3020,90
737,61	3020,30
738,05	3021,50
738,49	3022,15
738,93	3019,42
739,37	3021,20
739,81	3021,42
740,25	3021,30
740,69	3022,70
741,13	3018,82
741,57	3019,85
742,01	3019,70
742,45	3021,95
742,89	3020,30
743,33	3021,35
743,77	3019,98
744,21	3018,35
744,65	3021,02
745,09	3019,88
745,53	3019,08
745,98	3020,92
746,42	3019,48
746,86	3020,45
747,30	3020,52
747,74	3018,55
748,18	3018,90
748,62	3020,82
749,06	3021,05
749,50	3021,12
749,94	3019,50
750,38	3020,62
750,82	3022,18
751,26	3019,25
751,70	3018,15
752,14	3018,85
752,58	3019,88
753,02	3019,98
753,45	3019,18
753,89	3019,42
754,33	3021,95
754,77	3020,50
755,21	3018,65
755,65	3017,38
756,09	3017,45
756,53	3018,88
756,97	3017,52
757,41	3020,95
757,85	3016,98
758,29	3020,28
758,73	3019,50
759,17	3018,40
759,61	3018,92
760,05	3018,30
760,49	3019,10
760,93	3019,00
761,37	3018,35
761,80	3019,58
762,24	3018,12
762,68	3019,98
763,12	3018,72
763,56	3019,75
764,00	3017,20
764,44	3018,20
764,88	3017,08
765,32	3017,72
765,76	3018,98
766,20	3019,12
766,63	3018,35
767,07	3018,88
767,51	3016,92
767,95	3018,62
768,39	3018,18
768,83	3016,12
769,27	3018,38
769,71	3018,98
770,14	3017,42
770,58	3016,32
771,02	3017,65
771,46	3017,72
771,90	3018,72
772,34	3018,12
772,78	3019,00
773,21	3016,80
773,65	3018,48
774,09	3017,18
774,53	3019,00
774,97	3017,05
775,41	3016,75
775,84	3017,78
776,28	3017,68
776,72	3017,90
777,16	3018,52
777,60	3018,60
778,04	3016,15
778,47	3015,20
778,91	3016,72
779,35	3015,38
779,79	3016,90
780,23	3015,55
780,66	3015,52
781,10	3019,10
781,54	3017,65
781,98	3017,00
782,42	3017,25
782,85	3017,68
783,29	3019,50
783,73	3019,02
784,17	3017,28
784,61	3017,65
785,04	3019,48
785,48	3016,88
785,92	3017,18
786,36	3018,85
786,79	3014,68
787,23	3017,28
787,67	3016,72
788,11	3018,02
788,54	3017,28
788,98	3017,78
789,42	3016,55
789,86	3015,95
790,29	3017,68
790,73	3017,70
791,17	3017,38
791,60	3016,52
792,04	3017,30
792,48	3017,68
792,92	3015,38
793,35	3017,75
793,79	3015,95
794,23	3017,88
794,67	3015,58
795,10	3015,52
795,54	3017,38
795,98	3016,92
796,41	3015,88
796,85	3016,90
797,29	3018,68
797,72	3017,15
798,16	3015,42
798,60	3017,18
799,03	3016,68
799,47	3015,05
799,91	3018,40
800,34	3014,85
800,78	3016,48
801,22	3015,40
801,65	3015,82
802,09	3015,78
802,53	3018,05
802,96	3015,60
803,40	3016,42
803,84	3017,32
804,27	3015,95
804,71	3017,25
805,15	3016,90
805,58	3016,40
806,02	3015,48
806,46	3016,92
806,89	3018,18
807,33	3017,10
807,76	3015,28
808,20	3017,55
808,64	3015,15
809,07	3017,42
809,51	3017,80
809,95	3018,10
810,38	3015,58
810,82	3018,22
811,25	3016,98
811,69	3018,10
812,13	3017,05
812,56	3015,42
813,00	3013,95
813,43	3015,82
813,87	3014,82
814,30	3017,10
814,74	3016,78
815,18	3019,75
815,61	3015,70
816,05	3015,38
816,48	3016,92
816,92	3017,05
817,35	3017,05
817,79	3014,82
818,23	3015,65
818,66	3015,28
819,10	3014,10
819,53	3014,45
819,97	3016,80
820,40	3013,88
820,84	3016,08
821,27	3015,68
821,71	3016,12
822,14	3014,50
822,58	3014,48
823,01	3016,00
823,45	3014,45
823,88	3014,55
824,32	3015,55
824,75	3014,88
825,19	3015,38
825,63	3016,12
826,06	3014,68
826,50	3014,00
826,93	3015,82
827,37	3016,50
827,80	3014,68
828,23	3014,55
828,67	3014,72
829,10	3017,58
829,54	3015,15
829,97	3014,52
830,41	3013,40
830,84	3014,32
831,28	3015,12
831,71	3015,15
832,15	3016,00
832,58	3015,50
833,02	3015,40
833,45	3013,35
833,89	3016,80
834,32	3017,05
834,75	3016,45
835,19	3015,45
835,62	3015,10
836,06	3013,92
836,49	3015,72
836,93	3014,70
837,36	3014,75
837,79	3015,25
838,23	3015,05
838,66	3014,22
839,10	3015,62
839,53	3014,62
839,97	3015,45
840,40	3013,32
840,83	3015,28
841,27	3014,75
841,70	3015,35
842,14	3015,78
842,57	3013,98
843,00	3015,50
843,44	3016,22
843,87	3014,92
844,31	3015,80
844,74	3014,28
845,17	3014,38
845,61	3013,82
846,04	3014,75
846,47	3016,10
846,91	3014,88
847,34	3014,88
847,77	3014,90
848,21	3015,15
848,64	3014,82
849,08	3013,18
849,51	3015,52
849,94	3013,95
850,38	3015,05
850,81	3015,38
851,24	3015,32
851,68	3015,40
852,11	3013,70
852,54	3014,40
852,98	3014,75
853,41	3016,68
853,84	3013,68
854,28	3014,28
854,71	3014,52
855,14	3015,32
855,57	3016,12
856,01	3014,95
856,44	3013,90
856,87	3016,02
857,31	3013,38
857,74	3014,32
858,17	3014,08
858,61	3014,98
859,04	3014,45
859,47	3016,32
859,90	3015,18
860,34	3015,72
860,77	3013,32
861,20	3015,28
861,63	3015,52
862,07	3013,45
862,50	3013,18
862,93	3014,42
863,37	3014,88
863,80	3015,42
864,23	3014,60
864,66	3015,25
865,10	3014,15
865,53	3017,45
865,96	3012,75
866,39	3014,40
866,82	3013,68
867,26	3013,00
867,69	3014,68
868,12	3013,45
868,55	3013,48
868,99	3013,45
869,42	3014,18
869,85	3016,20
870,28	3012,95
870,71	3015,12
871,15	3014,58
871,58	3012,98
872,01	3013,82
872,44	3015,18
872,87	3013,78
873,31	3016,02
873,74	3013,05
874,17	3015,30
874,60	3014,52
875,03	3014,55
875,47	3016,15
875,90	3016,20
876,33	3014,02
876,76	3014,48
877,19	3014,18
877,62	3014,90
878,06	3012,05
878,49	3014,78
878,92	3012,92
879,35	3014,88
879,78	3014,12
880,21	3014,88
880,64	3014,15
881,08	3013,88
881,51	3013,70
881,94	3013,68
882,37	3015,80
882,80	3013,68
883,23	3013,98
883,66	3014,70
884,09	3015,68
884,53	3015,02
884,96	3014,40
885,39	3014,15
885,82	3014,58
886,25	3012,90
886,68	3013,58
887,11	3014,18
887,54	3012,92
887,97	3013,82
888,40	3014,42
888,84	3014,55
889,27	3014,08
889,70	3014,62
890,13	3013,50
890,56	3015,08
890,99	3014,25
891,42	3013,12
891,85	3016,22
892,28	3013,55
892,71	3016,65
893,14	3013,98
893,57	3014,10
894,00	3014,55
894,43	3013,80
894,86	3013,52
895,29	3013,52
895,73	3011,20
896,16	3013,15
896,59	3011,95
897,02	3014,65
897,45	3013,48
897,88	3014,05
898,31	3013,32
898,74	3013,30
899,17	3015,90
899,60	3014,00
900,03	3012,88
900,46	3012,95
900,89	3013,55
901,32	3014,90
901,75	3012,70
902,18	3014,00
902,61	3013,62
903,04	3014,35
903,47	3015,12
903,90	3013,42
904,33	3014,95
904,76	3013,88
905,19	3014,10
905,62	3013,78
906,05	3016,78
906,48	3013,80
906,91	3013,60
907,34	3014,48
907,76	3014,12
908,19	3013,75
908,62	3014,30
909,05	3012,80
909,48	3014,98
909,91	3013,08
910,34	3013,22
910,77	3014,98
911,20	3014,25
911,63	3011,72
912,06	3013,65
912,49	3014,00
912,92	3013,02
913,35	3014,22
913,78	3011,40
914,21	3013,88
914,63	3012,30
915,06	3013,28
915,49	3013,40
915,92	3013,68
916,35	3013,58
916,78	3011,10
917,21	3012,48
917,64	3012,30
918,07	3013,10
918,50	3013,78
918,92	3013,25
919,35	3014,50
919,78	3012,88
920,21	3014,98
920,64	3013,50
921,07	3012,98
921,50	3014,78
921,93	3012,28
922,35	3013,95
922,78	3011,15
923,21	3013,80
923,64	3012,48
924,07	3013,80
924,50	3012,80
924,92	3012,52
925,35	3014,75
925,78	3014,42
926,21	3013,48
926,64	3012,05
927,07	3013,20
927,49	3012,52
927,92	3013,98
928,35	3013,58
928,78	3013,48
929,21	3012,80
929,64	3011,90
930,06	3015,70
930,49	3013,55
930,92	3012,65
931,35	3012,58
931,78	3013,78
932,20	3013,62
932,63	3013,82
933,06	3014,08
933,49	3015,42
933,92	3012,62
934,34	3015,25
934,77	3012,62
935,20	3015,55
935,63	3011,95
936,05	3013,78
936,48	3013,82
936,91	3012,68
937,34	3013,00
937,76	3012,82
938,19	3012,60
938,62	3012,68
939,05	3013,10
939,47	3013,92
939,90	3012,22
940,33	3012,40
940,76	3012,02
941,18	3012,38
941,61	3012,62
942,04	3012,68
942,47	3014,00
942,89	3015,40
943,32	3012,52
943,75	3013,90
944,17	3012,32
944,60	3014,08
945,03	3012,18
945,46	3014,40
945,88	3011,15
946,31	3013,92
946,74	3011,85
947,16	3012,65
947,59	3012,80
948,02	3013,90
948,44	3013,25
948,87	3013,30
949,30	3011,55
949,72	3012,18
950,15	3013,65
950,58	3013,32
951,00	3011,32
951,43	3011,80
951,86	3016,38
952,28	3015,35
952,71	3011,18
953,14	3011,28
953,56	3013,08
953,99	3009,65
954,42	3013,10
954,84	3012,62
955,27	3013,22
955,70	3012,55
956,12	3013,62
956,55	3012,70
956,98	3012,60
957,40	3013,12
957,83	3013,80
958,25	3013,70
958,68	3014,45
959,11	3014,45
959,53	3013,05
959,96	3013,58
960,38	3012,22
960,81	3013,40
961,24	3010,65
961,66	3012,68
962,09	3011,18
962,51	3012,55
962,94	3012,52
963,37	3011,55
963,79	3013,65
964,22	3013,82
964,64	3010,78
965,07	3014,58
965,49	3012,28
965,92	3012,68
966,35	3012,85
966,77	3011,88
967,20	3012,32
967,62	3013,32
968,05	3011,30
968,47	3013,60
968,90	3011,65
969,32	3012,75
969,75	3012,30
970,17	3016,02
970,60	3012,52
971,03	3011,75
971,45	3013,90
971,88	3012,18
972,30	3012,72
972,73	3014,42
973,15	3012,75
973,58	3013,08
974,00	3011,25
974,43	3013,15
974,85	3012,25
975,28	3013,80
975,70	3014,40
976,13	3013,78
976,55	3013,02
976,98	3012,78
977,40	3013,70
977,83	3012,75
978,25	3014,08
978,68	3013,55
979,10	3011,98
979,53	3016,02
979,95	3014,12
980,37	3013,50
980,80	3012,62
981,22	3013,02
981,65	3012,58
982,07	3012,48
982,50	3013,58
982,92	3013,80
983,35	3012,75
983,77	3012,68
984,20	3013,22
984,62	3012,95
985,04	3011,92
985,47	3014,50
985,89	3013,45
986,32	3013,52
986,74	3011,82
987,17	3013,05
987,59	3014,82
988,01	3011,38
988,44	3013,32
988,86	3012,60
989,29	3012,08
989,71	3012,22
990,13	3011,98
990,56	3011,92
990,98	3012,60
991,41	3012,58
991,83	3010,95
992,25	3013,05
992,68	3012,48
993,10	3013,98
993,53	3012,55
993,95	3012,80
994,37	3012,88
994,80	3011,82
995,22	3012,65
995,64	3012,38
996,07	3013,35
996,49	3012,98
996,91	3011,92
997,34	3010,80
997,76	3011,85
998,18	3011,42
998,61	3012,88
999,03	3013,95
999,45	3011,90
999,88	3012,55
1000,30	3011,42
1000,72	3014,32
1001,15	3012,45
1001,57	3010,65
1001,99	3013,40
1002,42	3010,75
1002,84	3010,85
1003,26	3012,92
1003,69	3012,48
1004,11	3012,82
1004,53	3012,92
1004,96	3012,72
1005,38	3011,88
1005,80	3013,42
1006,22	3011,00
1006,65	3013,92
1007,07	3011,40
1007,49	3012,12
1007,92	3013,28
1008,34	3010,90
1008,76	3012,95
1009,18	3011,10
1009,61	3013,08
1010,03	3013,00
1010,45	3015,15
1010,87	3012,52
1011,30	3012,80
1011,72	3012,88
1012,14	3012,92
1012,56	3013,22
1012,99	3011,92
1013,41	3014,45
1013,83	3014,12
1014,25	3012,35
1014,68	3013,85
1015,10	3012,12
1015,52	3014,25
1015,94	3012,02
1016,37	3013,88
1016,79	3011,82
1017,21	3011,78
1017,63	3013,60
1018,05	3013,95
1018,48	3014,35
1018,90	3012,52
1019,32	3012,50
1019,74	3012,78
1020,16	3014,02
1020,59	3012,05
1021,01	3013,60
1021,43	3012,82
1021,85	3014,98
1022,27	3013,58
1022,69	3011,02
1023,12	3015,15
1023,54	3013,30
1023,96	3016,00
1024,38	3014,72
1024,80	3013,85
1025,22	3011,35
1025,65	3014,32
1026,07	3013,38
1026,49	3014,92
1026,91	3012,68
1027,33	3012,30
1027,75	3014,72
1028,17	3015,05
1028,60	3014,02
1029,02	3014,00
1029,44	3013,98
1029,86	3013,85
1030,28	3018,22
1030,70	3014,45
1031,12	3012,78
1031,54	3015,35
1031,97	3015,10
1032,39	3012,48
1032,81	3015,65
1033,23	3014,05
1033,65	3013,58
1034,07	3014,12
1034,49	3012,82
1034,91	3014,98
1035,33	3014,42
1035,75	3015,32
1036,18	3015,30
1036,60	3015,90
1037,02	3014,65
1037,44	3015,75
1037,86	3015,58
1038,28	3016,28
1038,70	3016,65
1039,12	3016,95
1039,54	3017,65
1039,96	3018,88
1040,38	3017,35
1040,80	3016,28
1041,22	3016,65
1041,64	3016,62
1042,06	3016,78
1042,48	3019,30
1042,90	3018,72
1043,32	3019,15
1043,74	3018,45
1044,17	3019,88
1044,59	3019,90
1045,01	3019,50
1045,43	3020,72
1045,85	3018,48
1046,27	3020,05
1046,69	3020,72
1047,11	3021,52
1047,53	3019,82
1047,95	3021,88
1048,37	3021,28
1048,79	3020,98
1049,21	3023,80
1049,63	3022,10
1050,05	3023,05
1050,47	3022,92
1050,89	3022,58
1051,31	3022,90
1051,72	3024,78
1052,14	3024,82
1052,56	3024,90
1052,98	3024,60
1053,40	3024,25
1053,82	3024,30
1054,24	3026,32
1054,66	3023,55
1055,08	3024,45
1055,50	3025,42
1055,92	3025,58
1056,34	3027,28
1056,76	3026,72
1057,18	3027,85
1057,60	3024,70
1058,02	3026,92
1058,44	3029,42
1058,86	3026,68
1059,28	3026,60
1059,69	3027,92
1060,11	3027,30
1060,53	3024,82
1060,95	3026,00
1061,37	3027,40
1061,79	3025,15
1062,21	3025,22
1062,63	3028,30
1063,05	3027,45
1063,47	3029,10
1063,88	3025,98
1064,30	3027,38
1064,72	3030,15
1065,14	3028,98
1065,56	3025,78
1065,98	3027,60
1066,40	3027,20
1066,82	3029,02
1067,23	3027,58
1067,65	3027,55
1068,07	3027,90
1068,49	3028,58
1068,91	3029,85
1069,33	3027,82
1069,75	3026,68
1070,16	3028,40
1070,58	3027,32
1071,00	3029,02
1071,42	3027,30
1071,84	3029,32
1072,26	3028,12
1072,67	3027,65
1073,09	3029,80
1073,51	3027,95
1073,93	3028,78
1074,35	3028,52
1074,77	3027,42
1075,18	3028,28
1075,60	3028,40
1076,02	3027,80
1076,44	3027,75
1076,86	3028,78
1077,27	3028,40
1077,69	3028,30
1078,11	3027,95
1078,53	3029,35
1078,94	3030,50
1079,36	3027,32
1079,78	3028,62
1080,20	3030,28
1080,62	3028,65
1081,03	3028,28
1081,45	3028,88
1081,87	3029,45
1082,29	3029,32
1082,70	3029,90
1083,12	3029,68
1083,54	3027,50
1083,96	3027,38
1084,37	3030,05
1084,79	3027,15
1085,21	3026,95
1085,63	3030,25
1086,04	3027,30
1086,46	3027,90
1086,88	3030,00
1087,30	3026,80
1087,71	3030,22
1088,13	3067,85
1088,55	3029,45
1088,96	3027,40
1089,38	3028,22
1089,80	3028,15
1090,22	3029,65
1090,63	3028,00
1091,05	3027,12
1091,47	3028,40
1091,88	3028,42
1092,30	3027,35
1092,72	3028,25
1093,13	3027,50
1093,55	3028,95
1093,97	3029,15
1094,38	3028,60
1094,80	3027,98
1095,22	3027,95
1095,63	3027,42
1096,05	3028,05
1096,47	3028,52
1096,88	3026,22
1097,30	3027,50
1097,72	3027,02
1098,13	3029,65
1098,55	3029,00
1098,97	3027,78
1099,38	3027,65
1099,80	3028,95
1100,21	3028,90
1100,63	3026,32
1101,05	3025,45
1101,46	3027,02
1101,88	3027,25
1102,30	3026,78
1102,71	3027,15
1103,13	3027,02
1103,54	3029,08
1103,96	3026,52
1104,38	3029,80
1104,79	3026,62
1105,21	3026,62
1105,62	3027,20
1106,04	3024,28
1106,46	3027,92
1106,87	3026,72
1107,29	3025,70
1107,70	3027,15
1108,12	3026,30
1108,54	3027,78
1108,95	3026,75
1109,37	3027,78
1109,78	3026,20
1110,20	3027,22
1110,61	3025,50
1111,03	3025,50
1111,44	3025,50
1111,86	3025,50
1112,28	3025,50
1112,69	3025,50
1113,11	3025,50
1113,52	3025,50
1113,94	3025,50
1114,35	3025,50
1114,77	3025,50
1115,18	3025,50
1115,60	3025,50
1116,01	3025,50
1116,43	3025,50
1116,84	3025,50
1117,26	3025,50
1117,67	3025,50
1118,09	3025,50
1118,50	3025,50
1118,92	3025,50
>>>>>End Processed Spectral Data<<<<<
