SpectraSuite Data File
++++++++++++++++++++++++++++++++++++
Date: Tue Jul 12 15:37:57 EEST 2011
User: OO Maya
Dark Spectrum Present: No
Reference Spectrum Present: No
Number of Sampled Component Spectra: 1
Spectrometers: MAYP11278
Integration Time (usec): 35000 (MAYP11278)
Spectra Averaged: 40 (MAYP11278)
Boxcar Smoothing: 0 (MAYP11278)
Correct for Electrical Dark: No (MAYP11278)
Strobe/Lamp Enabled: No (MAYP11278)
Correct for Detector Non-linearity: No (MAYP11278)
Correct for Stray Light: No (MAYP11278)
Number of Pixels in Processed Spectrum: 2068
>>>>>Begin Processed Spectral Data<<<<<
200,00	3052,15
200,47	2997,40
200,95	2995,82
201,42	2994,48
201,89	3054,32
202,37	3057,02
202,84	3054,88
203,31	3056,35
203,79	3060,68
204,26	3059,10
204,73	3056,48
205,20	3057,05
205,68	3060,40
206,15	3062,02
206,62	3063,15
207,10	3061,50
207,57	3062,92
208,04	3060,68
208,51	3057,98
208,99	3069,02
209,46	3060,42
209,93	3056,75
210,41	3056,30
210,88	3055,68
211,35	3058,85
211,82	3063,28
212,30	3056,10
212,77	3059,90
213,24	3064,15
213,71	3062,05
214,19	3061,88
214,66	3056,28
215,13	3062,45
215,60	3057,85
216,08	3062,75
216,55	3063,35
217,02	3060,72
217,49	3058,50
217,96	3066,10
218,44	3058,32
218,91	3059,75
219,38	3071,50
219,85	3062,25
220,33	3063,50
220,80	3060,38
221,27	3064,92
221,74	3062,85
222,21	3059,82
222,69	3059,50
223,16	3063,88
223,63	3060,35
224,10	3058,52
224,57	3069,55
225,04	3063,32
225,52	3060,50
225,99	3068,12
226,46	3061,65
226,93	3066,68
227,40	3061,95
227,87	3064,72
228,35	3063,75
228,82	3061,58
229,29	3059,12
229,76	3062,10
230,23	3067,25
230,70	3055,90
231,18	3059,30
231,65	3057,90
232,12	3062,42
232,59	3067,45
233,06	3058,52
233,53	3066,78
234,00	3058,92
234,48	3064,78
234,95	3061,00
235,42	3063,92
235,89	3062,82
236,36	3058,28
236,83	3058,52
237,30	3061,62
237,77	3058,82
238,24	3060,32
238,72	3063,80
239,19	3060,20
239,66	3064,78
240,13	3063,68
240,60	3066,05
241,07	3059,28
241,54	3062,85
242,01	3060,48
242,48	3064,18
242,95	3067,55
243,42	3062,28
243,90	3062,08
244,37	3057,62
244,84	3060,60
245,31	3064,05
245,78	3074,58
246,25	3064,52
246,72	3059,42
247,19	3060,55
247,66	3056,38
248,13	3066,40
248,60	3070,15
249,07	3061,32
249,54	3062,92
250,01	3065,02
250,48	3064,95
250,95	3062,28
251,42	3057,10
251,89	3066,28
252,36	3066,82
252,83	3063,95
253,30	3061,30
253,77	3066,95
254,24	3067,35
254,71	3058,80
255,18	3059,60
255,65	3065,60
256,12	3069,75
256,59	3060,78
257,06	3067,38
257,53	3067,60
258,00	3059,30
258,47	3065,15
258,94	3063,52
259,41	3066,02
259,88	3063,82
260,35	3056,52
260,82	3062,00
261,29	3065,22
261,76	3064,02
262,23	3067,12
262,70	3063,70
263,17	3068,70
263,64	3068,50
264,11	3058,32
264,58	3069,02
265,05	3066,32
265,52	3062,88
265,99	3063,98
266,46	3064,62
266,93	3064,02
267,40	3060,92
267,87	3063,70
268,34	3063,40
268,81	3067,55
269,28	3074,05
269,74	3065,90
270,21	3060,85
270,68	3063,90
271,15	3066,90
271,62	3069,95
272,09	3061,72
272,56	3062,35
273,03	3068,35
273,50	3060,05
273,97	3063,52
274,44	3063,22
274,90	3058,82
275,37	3066,92
275,84	3066,25
276,31	3059,60
276,78	3063,05
277,25	3063,08
277,72	3067,78
278,19	3061,10
278,66	3062,75
279,12	3063,38
279,59	3066,00
280,06	3057,08
280,53	3061,45
281,00	3060,40
281,47	3065,45
281,94	3067,75
282,40	3061,08
282,87	3064,32
283,34	3058,70
283,81	3057,92
284,28	3055,58
284,75	3064,28
285,21	3080,20
285,68	3065,50
286,15	3066,62
286,62	3059,68
287,09	3061,75
287,56	3069,35
288,02	3067,75
288,49	3059,88
288,96	3061,60
289,43	3057,25
289,90	3080,78
290,36	3060,12
290,83	3061,40
291,30	3080,10
291,77	3067,65
292,24	3074,78
292,70	3060,88
293,17	3067,42
293,64	3062,38
294,11	3062,72
294,58	3067,42
295,04	3062,12
295,51	3060,18
295,98	3064,95
296,45	3062,42
296,91	3062,72
297,38	3064,98
297,85	3058,10
298,32	3065,40
298,79	3070,52
299,25	3063,78
299,72	3066,60
300,19	3058,52
300,66	3067,92
301,12	3062,82
301,59	3065,68
302,06	3062,28
302,52	3068,12
302,99	3073,18
303,46	3062,52
303,93	3070,20
304,39	3061,28
304,86	3068,15
305,33	3067,28
305,80	3062,75
306,26	3065,38
306,73	3064,22
307,20	3070,72
307,66	3072,85
308,13	3067,72
308,60	3066,05
309,07	3066,92
309,53	3065,12
310,00	3071,92
310,47	3064,10
310,93	3065,85
311,40	3063,05
311,87	3066,72
312,33	3067,75
312,80	3069,12
313,27	3061,95
313,73	3068,15
314,20	3069,35
314,67	3061,98
315,13	3064,85
315,60	3063,25
316,07	3065,20
316,53	3067,22
317,00	3063,70
317,47	3066,22
317,93	3062,25
318,40	3061,48
318,87	3067,02
319,33	3063,88
319,80	3066,62
320,26	3069,68
320,73	3067,18
321,20	3067,55
321,66	3065,40
322,13	3064,40
322,60	3069,00
323,06	3066,08
323,53	3074,25
323,99	3062,10
324,46	3064,10
324,93	3065,72
325,39	3064,35
325,86	3063,30
326,32	3069,70
326,79	3066,35
327,26	3067,50
327,72	3067,55
328,19	3066,18
328,65	3076,18
329,12	3066,68
329,59	3064,45
330,05	3060,28
330,52	3068,32
330,98	3069,92
331,45	3069,08
331,91	3063,02
332,38	3057,35
332,85	3061,40
333,31	3074,35
333,78	3063,15
334,24	3068,22
334,71	3060,50
335,17	3065,65
335,64	3064,10
336,10	3063,90
336,57	3061,00
337,03	3063,62
337,50	3068,65
337,96	3065,25
338,43	3067,68
338,90	3067,42
339,36	3061,22
339,83	3065,75
340,29	3064,18
340,76	3062,00
341,22	3068,45
341,69	3067,18
342,15	3075,30
342,62	3060,90
343,08	3074,72
343,55	3068,68
344,01	3068,10
344,48	3070,50
344,94	3067,15
345,41	3068,35
345,87	3080,40
346,34	3060,08
346,80	3065,92
347,27	3063,50
347,73	3067,58
348,19	3064,82
348,66	3064,12
349,12	3074,72
349,59	3069,35
350,05	3060,18
350,52	3063,15
350,98	3062,78
351,45	3068,70
351,91	3070,98
352,38	3063,75
352,84	3067,42
353,30	3068,60
353,77	3067,42
354,23	3066,38
354,70	3065,52
355,16	3063,38
355,63	3066,40
356,09	3069,72
356,55	3064,32
357,02	3064,45
357,48	3072,65
357,95	3063,70
358,41	3071,20
358,87	3067,42
359,34	3062,78
359,80	3068,70
360,27	3067,32
360,73	3070,92
361,19	3063,68
361,66	3068,75
362,12	3074,50
362,59	3068,28
363,05	3067,32
363,51	3067,08
363,98	3068,55
364,44	3066,35
364,91	3069,48
365,37	3067,85
365,83	3075,42
366,30	3065,80
366,76	3075,05
367,22	3061,92
367,69	3076,32
368,15	3068,35
368,61	3061,78
369,08	3064,38
369,54	3066,38
370,00	3065,62
370,47	3072,05
370,93	3072,90
371,39	3064,75
371,86	3066,35
372,32	3066,20
372,78	3064,52
373,25	3068,05
373,71	3077,18
374,17	3068,45
374,64	3064,08
375,10	3069,42
375,56	3065,10
376,03	3059,60
376,49	3068,35
376,95	3065,00
377,42	3068,28
377,88	3060,80
378,34	3062,78
378,80	3071,32
379,27	3062,90
379,73	3070,25
380,19	3066,68
380,66	3065,58
381,12	3063,50
381,58	3068,35
382,04	3063,40
382,51	3061,80
382,97	3069,00
383,43	3067,58
383,89	3061,68
384,36	3063,18
384,82	3067,82
385,28	3061,60
385,74	3071,10
386,21	3066,35
386,67	3063,68
387,13	3064,68
387,59	3066,72
388,06	3067,82
388,52	3067,92
388,98	3066,50
389,44	3068,02
389,91	3068,50
390,37	3072,65
390,83	3067,42
391,29	3074,30
391,75	3071,58
392,22	3062,08
392,68	3069,00
393,14	3068,05
393,60	3073,85
394,06	3069,02
394,53	3088,72
394,99	3068,78
395,45	3068,60
395,91	3068,98
396,37	3077,60
396,84	3066,45
397,30	3065,55
397,76	3071,25
398,22	3070,32
398,68	3075,55
399,14	3068,62
399,61	3074,70
400,07	3068,15
400,53	3072,28
400,99	3073,75
401,45	3070,38
401,91	3071,18
402,38	3069,72
402,84	3069,95
403,30	3082,58
403,76	3070,68
404,22	3075,85
404,68	3069,48
405,14	3075,18
405,61	3093,18
406,07	3069,00
406,53	3075,28
406,99	3077,55
407,45	3069,50
407,91	3074,88
408,37	3072,50
408,83	3072,52
409,29	3081,28
409,76	3072,62
410,22	3078,52
410,68	3077,18
411,14	3082,45
411,60	3080,60
412,06	3080,35
412,52	3076,78
412,98	3088,40
413,44	3084,75
413,90	3091,68
414,36	3096,22
414,83	3096,00
415,29	3087,22
415,75	3096,40
416,21	3096,25
416,67	3108,68
417,13	3101,32
417,59	3103,42
418,05	3111,18
418,51	3107,35
418,97	3121,32
419,43	3115,20
419,89	3134,35
420,35	3127,58
420,81	3145,02
421,27	3141,45
421,73	3147,72
422,19	3163,20
422,65	3167,70
423,11	3177,55
423,57	3192,70
424,03	3208,82
424,49	3212,82
424,96	3233,42
425,42	3242,80
425,88	3264,82
426,34	3289,15
426,80	3302,52
427,26	3324,40
427,72	3349,98
428,18	3376,20
428,64	3411,45
429,10	3438,82
429,56	3478,58
430,02	3512,45
430,47	3555,50
430,93	3604,00
431,39	3657,02
431,85	3709,82
432,31	3772,35
432,77	3835,38
433,23	3906,48
433,69	3982,60
434,15	4065,90
434,61	4152,55
435,07	4258,85
435,53	4354,30
435,99	4482,68
436,45	4599,75
436,91	4737,82
437,37	4873,80
437,83	5040,72
438,29	5203,30
438,75	5388,58
439,21	5575,55
439,67	5798,38
440,12	6009,75
440,58	6259,02
441,04	6525,72
441,50	6802,65
441,96	7103,15
442,42	7436,22
442,88	7784,02
443,34	8155,80
443,80	8573,42
444,26	8993,45
444,72	9454,50
445,17	9952,05
445,63	10466,65
446,09	11060,92
446,55	11682,62
447,01	12335,58
447,47	13046,32
447,93	13821,62
448,39	14651,92
448,85	15487,80
449,30	16391,00
449,76	17397,00
450,22	18392,12
450,68	19480,50
451,14	20609,05
451,60	21805,90
452,06	23091,60
452,51	24437,92
452,97	25817,72
453,43	27304,62
453,89	28794,28
454,35	30350,78
454,81	31891,65
455,26	33488,50
455,72	35182,62
456,18	36759,40
456,64	38349,35
457,10	39939,12
457,56	41481,80
458,01	42972,08
458,47	44445,62
458,93	45848,65
459,39	47121,00
459,85	48316,62
460,30	49461,48
460,76	50365,45
461,22	51209,45
461,68	51885,08
462,14	52346,18
462,59	52610,12
463,05	52706,82
463,51	52612,82
463,97	52300,68
464,43	51832,25
464,88	51193,02
465,34	50425,78
465,80	49501,75
466,26	48536,62
466,71	47424,40
467,17	46241,98
467,63	44967,90
468,09	43697,70
468,54	42388,85
469,00	40979,95
469,46	39579,80
469,92	38273,32
470,37	36890,38
470,83	35551,68
471,29	34303,20
471,75	33061,32
472,20	31868,25
472,66	30793,45
473,12	29735,28
473,58	28754,20
474,03	27829,48
474,49	26956,62
474,95	26143,45
475,40	25391,18
475,86	24645,35
476,32	23946,15
476,78	23289,80
477,23	22622,65
477,69	21983,32
478,15	21379,15
478,60	20783,12
479,06	20183,98
479,52	19621,92
479,97	19042,08
480,43	18504,72
480,89	17953,65
481,34	17426,15
481,80	16902,90
482,26	16368,00
482,71	15840,30
483,17	15330,75
483,63	14851,00
484,08	14341,35
484,54	13848,25
485,00	13378,82
485,45	12937,68
485,91	12490,05
486,37	12078,08
486,82	11666,08
487,28	11296,95
487,74	10916,20
488,19	10568,20
488,65	10256,40
489,10	9937,00
489,56	9615,52
490,02	9351,78
490,47	9087,22
490,93	8837,25
491,39	8590,35
491,84	8374,32
492,30	8154,20
492,75	7974,62
493,21	7750,42
493,67	7586,58
494,12	7407,22
494,58	7258,48
495,03	7092,60
495,49	6949,50
495,95	6810,25
496,40	6676,58
496,86	6536,32
497,31	6419,60
497,77	6301,92
498,23	6185,88
498,68	6068,45
499,14	5959,05
499,59	5838,12
500,05	5749,30
500,50	5634,62
500,96	5547,62
501,41	5453,82
501,87	5361,88
502,33	5252,00
502,78	5175,55
503,24	5086,75
503,69	5010,82
504,15	4939,58
504,60	4852,35
505,06	4787,05
505,51	4726,30
505,97	4651,65
506,42	4581,88
506,88	4529,05
507,33	4464,80
507,79	4418,05
508,24	4357,98
508,70	4299,05
509,15	4252,60
509,61	4207,80
510,06	4173,52
510,52	4122,95
510,97	4082,18
511,43	4040,10
511,88	4009,62
512,34	3970,88
512,79	3938,50
513,25	3910,70
513,70	3879,00
514,16	3853,12
514,61	3830,52
515,07	3798,80
515,52	3778,12
515,98	3755,32
516,43	3723,75
516,89	3702,38
517,34	3680,98
517,80	3659,65
518,25	3635,08
518,70	3616,55
519,16	3605,90
519,61	3587,65
520,07	3561,95
520,52	3539,32
520,98	3526,95
521,43	3513,78
521,89	3490,25
522,34	3483,85
522,79	3473,20
523,25	3446,50
523,70	3440,38
524,16	3428,18
524,61	3420,55
525,06	3415,22
525,52	3393,22
525,97	3381,52
526,43	3384,05
526,88	3358,12
527,33	3346,12
527,79	3337,05
528,24	3326,20
528,70	3322,88
529,15	3317,15
529,60	3308,20
530,06	3296,02
530,51	3285,08
530,97	3290,60
531,42	3282,28
531,87	3267,42
532,33	3269,42
532,78	3261,78
533,23	3254,40
533,69	3255,35
534,14	3241,45
534,59	3236,20
535,05	3232,22
535,50	3227,50
535,96	3226,90
536,41	3220,12
536,86	3213,45
537,32	3207,85
537,77	3206,28
538,22	3206,78
538,68	3195,00
539,13	3201,40
539,58	3192,80
540,03	3189,02
540,49	3186,30
540,94	3184,82
541,39	3178,35
541,85	3172,78
542,30	3173,92
542,75	3170,90
543,21	3170,62
543,66	3165,22
544,11	3168,18
544,57	3155,90
545,02	3163,42
545,47	3158,72
545,92	3155,50
546,38	3161,42
546,83	3154,88
547,28	3171,92
547,73	3146,50
548,19	3152,98
548,64	3144,98
549,09	3141,15
549,55	3142,55
550,00	3144,12
550,45	3135,22
550,90	3150,70
551,36	3132,25
551,81	3143,32
552,26	3140,45
552,71	3130,72
553,17	3131,52
553,62	3133,18
554,07	3129,50
554,52	3129,05
554,97	3129,22
555,43	3127,92
555,88	3125,58
556,33	3124,05
556,78	3122,32
557,24	3130,62
557,69	3122,15
558,14	3115,90
558,59	3121,20
559,04	3119,28
559,50	3126,05
559,95	3119,32
560,40	3117,30
560,85	3117,98
561,30	3116,82
561,76	3111,75
562,21	3114,92
562,66	3115,35
563,11	3123,62
563,56	3113,25
564,01	3118,88
564,47	3105,62
564,92	3113,05
565,37	3119,52
565,82	3110,88
566,27	3107,35
566,72	3107,62
567,18	3105,70
567,63	3104,28
568,08	3108,08
568,53	3108,12
568,98	3104,35
569,43	3104,35
569,88	3103,85
570,34	3107,18
570,79	3109,52
571,24	3100,18
571,69	3104,55
572,14	3100,35
572,59	3100,32
573,04	3101,82
573,49	3110,70
573,94	3098,55
574,40	3097,98
574,85	3101,15
575,30	3104,88
575,75	3098,92
576,20	3097,70
576,65	3103,15
577,10	3099,38
577,55	3096,82
578,00	3100,78
578,45	3100,05
578,91	3096,90
579,36	3098,78
579,81	3100,28
580,26	3092,98
580,71	3093,20
581,16	3098,22
581,61	3100,92
582,06	3097,38
582,51	3090,15
582,96	3094,30
583,41	3089,75
583,86	3095,98
584,31	3090,38
584,76	3093,18
585,21	3089,42
585,66	3096,15
586,11	3095,62
586,56	3091,52
587,01	3095,40
587,46	3092,48
587,92	3092,35
588,37	3088,92
588,82	3090,70
589,27	3089,00
589,72	3084,55
590,17	3087,62
590,62	3090,70
591,07	3086,50
591,52	3090,18
591,97	3084,72
592,42	3102,05
592,87	3087,88
593,32	3085,00
593,77	3085,48
594,22	3087,65
594,67	3090,32
595,12	3085,28
595,56	3088,40
596,01	3084,22
596,46	3085,42
596,91	3086,92
597,36	3091,45
597,81	3083,20
598,26	3080,28
598,71	3089,82
599,16	3085,55
599,61	3088,08
600,06	3085,38
600,51	3090,18
600,96	3082,32
601,41	3083,85
601,86	3089,75
602,31	3081,22
602,76	3079,95
603,21	3090,72
603,66	3087,25
604,11	3089,60
604,55	3083,42
605,00	3078,25
605,45	3083,58
605,90	3085,62
606,35	3079,32
606,80	3081,25
607,25	3088,90
607,70	3082,10
608,15	3085,42
608,60	3077,02
609,04	3095,35
609,49	3078,78
609,94	3082,65
610,39	3076,18
610,84	3076,48
611,29	3082,35
611,74	3079,72
612,19	3081,02
612,64	3080,78
613,08	3075,88
613,53	3081,42
613,98	3079,32
614,43	3080,28
614,88	3081,02
615,33	3080,35
615,78	3089,62
616,22	3081,78
616,67	3076,50
617,12	3077,52
617,57	3077,58
618,02	3072,88
618,47	3084,98
618,91	3080,00
619,36	3079,02
619,81	3090,82
620,26	3074,18
620,71	3072,12
621,16	3073,38
621,60	3070,58
622,05	3077,15
622,50	3077,48
622,95	3075,30
623,40	3076,05
623,84	3078,52
624,29	3079,25
624,74	3074,52
625,19	3076,18
625,64	3074,30
626,08	3079,38
626,53	3074,00
626,98	3078,92
627,43	3082,32
627,87	3077,35
628,32	3079,82
628,77	3083,50
629,22	3078,80
629,66	3072,02
630,11	3072,32
630,56	3080,10
631,01	3072,72
631,46	3074,50
631,90	3075,88
632,35	3071,85
632,80	3073,92
633,25	3077,92
633,69	3071,88
634,14	3078,68
634,59	3078,58
635,03	3068,52
635,48	3075,72
635,93	3074,80
636,38	3071,10
636,82	3076,90
637,27	3072,50
637,72	3078,18
638,16	3076,10
638,61	3081,85
639,06	3071,52
639,51	3071,48
639,95	3071,60
640,40	3073,18
640,85	3070,32
641,29	3072,98
641,74	3071,15
642,19	3069,55
642,63	3074,18
643,08	3074,85
643,53	3071,02
643,97	3075,82
644,42	3075,75
644,87	3072,95
645,31	3073,70
645,76	3068,65
646,21	3067,78
646,65	3074,72
647,10	3077,55
647,55	3069,35
647,99	3070,05
648,44	3071,40
648,89	3065,58
649,33	3072,85
649,78	3075,25
650,23	3070,80
650,67	3067,88
651,12	3069,02
651,56	3067,50
652,01	3073,62
652,46	3073,15
652,90	3073,40
653,35	3075,12
653,80	3072,95
654,24	3075,05
654,69	3067,20
655,13	3076,88
655,58	3073,08
656,03	3090,88
656,47	3067,75
656,92	3070,70
657,36	3068,65
657,81	3071,62
658,26	3067,45
658,70	3070,80
659,15	3067,85
659,59	3065,85
660,04	3070,95
660,48	3070,28
660,93	3068,40
661,38	3069,52
661,82	3072,65
662,27	3067,78
662,71	3067,48
663,16	3070,72
663,60	3072,42
664,05	3068,65
664,49	3070,42
664,94	3068,25
665,38	3087,82
665,83	3066,35
666,28	3073,60
666,72	3068,65
667,17	3065,65
667,61	3068,18
668,06	3066,28
668,50	3063,18
668,95	3074,20
669,39	3066,42
669,84	3067,95
670,28	3067,35
670,73	3066,18
671,17	3069,72
671,62	3064,75
672,06	3070,82
672,51	3072,22
672,95	3082,98
673,40	3074,32
673,84	3066,00
674,29	3068,52
674,73	3066,55
675,18	3078,00
675,62	3063,62
676,07	3066,68
676,51	3076,20
676,95	3067,20
677,40	3075,82
677,84	3079,90
678,29	3068,60
678,73	3068,90
679,18	3073,28
679,62	3086,10
680,07	3067,28
680,51	3070,20
680,96	3062,70
681,40	3063,75
681,84	3068,30
682,29	3066,15
682,73	3064,80
683,18	3066,45
683,62	3082,10
684,07	3065,62
684,51	3068,80
684,95	3067,82
685,40	3066,30
685,84	3069,12
686,29	3067,25
686,73	3060,85
687,17	3060,42
687,62	3068,42
688,06	3068,78
688,51	3068,98
688,95	3068,15
689,39	3067,58
689,84	3074,25
690,28	3070,70
690,73	3068,45
691,17	3070,02
691,61	3067,82
692,06	3064,60
692,50	3070,65
692,94	3067,40
693,39	3069,18
693,83	3067,85
694,27	3082,25
694,72	3070,60
695,16	3061,48
695,60	3067,92
696,05	3065,98
696,49	3061,95
696,94	3065,62
697,38	3060,72
697,82	3067,42
698,27	3067,88
698,71	3066,75
699,15	3070,38
699,59	3066,88
700,04	3066,52
700,48	3083,90
700,92	3067,60
701,37	3067,35
701,81	3074,32
702,25	3067,70
702,70	3064,60
703,14	3070,15
703,58	3065,00
704,03	3070,48
704,47	3068,60
704,91	3064,10
705,35	3063,52
705,80	3070,10
706,24	3069,18
706,68	3082,30
707,13	3061,70
707,57	3070,82
708,01	3064,78
708,45	3065,98
708,90	3067,22
709,34	3064,18
709,78	3064,62
710,22	3070,48
710,67	3069,78
711,11	3069,35
711,55	3063,25
711,99	3069,28
712,44	3065,30
712,88	3066,95
713,32	3068,52
713,76	3068,70
714,21	3066,98
714,65	3065,35
715,09	3066,78
715,53	3066,50
715,97	3064,50
716,42	3068,45
716,86	3064,98
717,30	3067,22
717,74	3063,40
718,18	3076,00
718,63	3064,58
719,07	3066,88
719,51	3072,00
719,95	3069,88
720,39	3065,45
720,84	3067,95
721,28	3061,40
721,72	3064,68
722,16	3058,25
722,60	3059,05
723,04	3065,30
723,49	3074,12
723,93	3061,60
724,37	3061,85
724,81	3065,12
725,25	3064,92
725,69	3061,85
726,14	3066,12
726,58	3064,48
727,02	3066,45
727,46	3063,28
727,90	3062,35
728,34	3057,98
728,78	3065,55
729,23	3060,42
729,67	3067,65
730,11	3058,82
730,55	3062,55
730,99	3063,85
731,43	3065,08
731,87	3074,50
732,31	3062,50
732,76	3068,50
733,20	3068,45
733,64	3062,05
734,08	3068,12
734,52	3061,15
734,96	3069,38
735,40	3059,82
735,84	3064,62
736,28	3066,52
736,72	3065,55
737,16	3066,18
737,61	3059,20
738,05	3067,92
738,49	3065,12
738,93	3060,72
739,37	3067,00
739,81	3066,75
740,25	3065,98
740,69	3076,75
741,13	3058,82
741,57	3065,50
742,01	3067,00
742,45	3066,58
742,89	3061,78
743,33	3062,22
743,77	3063,78
744,21	3059,65
744,65	3068,28
745,09	3063,48
745,53	3058,85
745,98	3066,42
746,42	3067,22
746,86	3062,72
747,30	3064,15
747,74	3059,02
748,18	3058,98
748,62	3063,42
749,06	3068,20
749,50	3067,28
749,94	3064,80
750,38	3069,38
750,82	3072,95
751,26	3054,70
751,70	3060,62
752,14	3057,30
752,58	3066,80
753,02	3062,30
753,45	3061,15
753,89	3064,78
754,33	3076,80
754,77	3065,98
755,21	3063,28
755,65	3059,60
756,09	3064,15
756,53	3061,02
756,97	3063,60
757,41	3073,62
757,85	3059,80
758,29	3063,12
758,73	3057,82
759,17	3061,02
759,61	3058,62
760,05	3062,48
760,49	3065,28
760,93	3069,45
761,37	3062,10
761,80	3069,40
762,24	3062,38
762,68	3063,28
763,12	3061,45
763,56	3062,65
764,00	3059,02
764,44	3060,48
764,88	3065,65
765,32	3060,92
765,76	3064,18
766,20	3068,08
766,63	3061,92
767,07	3059,62
767,51	3063,25
767,95	3067,38
768,39	3062,28
768,83	3058,75
769,27	3059,68
769,71	3064,60
770,14	3060,02
770,58	3058,25
771,02	3061,18
771,46	3061,30
771,90	3062,18
772,34	3064,45
772,78	3065,72
773,21	3062,72
773,65	3072,98
774,09	3058,98
774,53	3063,75
774,97	3059,30
775,41	3057,20
775,84	3067,72
776,28	3064,12
776,72	3060,90
777,16	3058,25
777,60	3060,20
778,04	3059,48
778,47	3055,55
778,91	3059,10
779,35	3058,52
779,79	3062,40
780,23	3061,25
780,66	3059,75
781,10	3060,98
781,54	3060,60
781,98	3064,28
782,42	3065,22
782,85	3060,72
783,29	3061,48
783,73	3075,45
784,17	3070,58
784,61	3064,02
785,04	3067,25
785,48	3063,65
785,92	3057,82
786,36	3064,55
786,79	3058,18
787,23	3060,70
787,67	3065,18
788,11	3066,45
788,54	3061,92
788,98	3059,65
789,42	3062,00
789,86	3057,90
790,29	3065,98
790,73	3066,52
791,17	3066,30
791,60	3058,72
792,04	3059,55
792,48	3061,92
792,92	3057,35
793,35	3060,98
793,79	3061,10
794,23	3061,15
794,67	3058,98
795,10	3059,55
795,54	3066,10
795,98	3059,28
796,41	3060,35
796,85	3060,90
797,29	3080,95
797,72	3066,22
798,16	3062,22
798,60	3063,85
799,03	3062,78
799,47	3057,35
799,91	3062,40
800,34	3060,80
800,78	3062,30
801,22	3060,20
801,65	3056,30
802,09	3060,75
802,53	3067,70
802,96	3062,12
803,40	3060,20
803,84	3069,30
804,27	3062,90
804,71	3058,82
805,15	3063,12
805,58	3063,10
806,02	3059,88
806,46	3065,98
806,89	3067,05
807,33	3064,90
807,76	3063,30
808,20	3060,28
808,64	3059,30
809,07	3069,78
809,51	3072,35
809,95	3070,48
810,38	3065,58
810,82	3069,95
811,25	3059,88
811,69	3060,28
812,13	3057,55
812,56	3062,70
813,00	3059,90
813,43	3058,95
813,87	3058,70
814,30	3063,75
814,74	3066,18
815,18	3077,15
815,61	3058,02
816,05	3059,40
816,48	3063,02
816,92	3070,92
817,35	3062,32
817,79	3061,92
818,23	3064,58
818,66	3062,02
819,10	3059,98
819,53	3059,15
819,97	3057,00
820,40	3060,75
820,84	3062,95
821,27	3060,18
821,71	3064,40
822,14	3059,68
822,58	3064,78
823,01	3066,15
823,45	3059,30
823,88	3062,12
824,32	3058,35
824,75	3061,32
825,19	3056,98
825,63	3066,52
826,06	3058,20
826,50	3062,20
826,93	3061,20
827,37	3057,45
827,80	3060,10
828,23	3059,28
828,67	3061,20
829,10	3060,55
829,54	3057,88
829,97	3058,05
830,41	3053,42
830,84	3058,82
831,28	3063,85
831,71	3065,22
832,15	3059,28
832,58	3062,75
833,02	3062,72
833,45	3058,45
833,89	3067,85
834,32	3058,88
834,75	3070,90
835,19	3064,38
835,62	3062,52
836,06	3054,12
836,49	3059,68
836,93	3060,42
837,36	3064,15
837,79	3061,10
838,23	3060,38
838,66	3056,88
839,10	3065,20
839,53	3059,35
839,97	3061,75
840,40	3059,78
840,83	3064,10
841,27	3057,15
841,70	3060,22
842,14	3060,15
842,57	3059,78
843,00	3065,55
843,44	3069,58
843,87	3060,70
844,31	3065,52
844,74	3053,72
845,17	3055,42
845,61	3056,92
846,04	3058,82
846,47	3062,15
846,91	3059,65
847,34	3062,05
847,77	3059,65
848,21	3057,85
848,64	3061,15
849,08	3055,40
849,51	3062,80
849,94	3055,68
850,38	3057,48
850,81	3058,75
851,24	3056,62
851,68	3057,62
852,11	3056,72
852,54	3059,42
852,98	3063,90
853,41	3061,00
853,84	3057,48
854,28	3064,30
854,71	3057,20
855,14	3060,35
855,57	3063,62
856,01	3058,68
856,44	3057,58
856,87	3062,90
857,31	3056,60
857,74	3062,32
858,17	3055,00
858,61	3058,08
859,04	3063,52
859,47	3065,82
859,90	3057,55
860,34	3063,60
860,77	3059,20
861,20	3053,25
861,63	3065,25
862,07	3053,10
862,50	3055,40
862,93	3060,30
863,37	3058,88
863,80	3058,25
864,23	3062,00
864,66	3056,20
865,10	3058,55
865,53	3062,75
865,96	3055,98
866,39	3058,62
866,82	3060,68
867,26	3056,22
867,69	3058,45
868,12	3058,10
868,55	3053,28
868,99	3058,32
869,42	3052,82
869,85	3060,72
870,28	3056,42
870,71	3060,50
871,15	3058,90
871,58	3057,52
872,01	3062,98
872,44	3060,75
872,87	3064,85
873,31	3072,48
873,74	3054,85
874,17	3057,22
874,60	3059,72
875,03	3057,40
875,47	3057,80
875,90	3059,30
876,33	3058,70
876,76	3064,92
877,19	3062,00
877,62	3056,85
878,06	3056,62
878,49	3065,00
878,92	3051,85
879,35	3060,55
879,78	3056,62
880,21	3058,72
880,64	3058,78
881,08	3058,18
881,51	3060,68
881,94	3058,28
882,37	3065,28
882,80	3054,52
883,23	3053,45
883,66	3055,48
884,09	3058,98
884,53	3062,55
884,96	3055,65
885,39	3056,95
885,82	3059,05
886,25	3057,50
886,68	3054,30
887,11	3062,08
887,54	3056,90
887,97	3062,32
888,40	3061,08
888,84	3056,60
889,27	3055,22
889,70	3066,12
890,13	3055,70
890,56	3058,02
890,99	3056,78
891,42	3055,00
891,85	3073,62
892,28	3052,80
892,71	3061,32
893,14	3058,58
893,57	3062,02
894,00	3060,52
894,43	3054,05
894,86	3057,50
895,29	3056,98
895,73	3053,68
896,16	3056,15
896,59	3058,68
897,02	3057,80
897,45	3061,68
897,88	3056,62
898,31	3055,38
898,74	3060,12
899,17	3060,75
899,60	3057,30
900,03	3052,50
900,46	3055,18
900,89	3059,05
901,32	3062,15
901,75	3053,88
902,18	3055,65
902,61	3055,12
903,04	3059,35
903,47	3061,70
903,90	3056,42
904,33	3066,65
904,76	3066,35
905,19	3057,30
905,62	3057,10
906,05	3065,12
906,48	3056,68
906,91	3059,72
907,34	3057,75
907,76	3059,58
908,19	3054,08
908,62	3063,30
909,05	3056,58
909,48	3062,85
909,91	3059,58
910,34	3057,12
910,77	3061,20
911,20	3062,72
911,63	3057,00
912,06	3052,75
912,49	3059,08
912,92	3058,08
913,35	3058,42
913,78	3057,05
914,21	3056,12
914,63	3058,65
915,06	3057,95
915,49	3060,40
915,92	3059,38
916,35	3058,35
916,78	3052,72
917,21	3054,60
917,64	3055,35
918,07	3056,08
918,50	3061,20
918,92	3056,90
919,35	3064,38
919,78	3055,30
920,21	3061,40
920,64	3054,90
921,07	3056,38
921,50	3058,12
921,93	3059,22
922,35	3062,38
922,78	3058,55
923,21	3066,38
923,64	3059,42
924,07	3055,95
924,50	3054,72
924,92	3054,98
925,35	3058,15
925,78	3065,02
926,21	3060,08
926,64	3053,78
927,07	3062,00
927,49	3054,28
927,92	3060,85
928,35	3068,02
928,78	3056,72
929,21	3060,00
929,64	3054,35
930,06	3067,02
930,49	3057,42
930,92	3051,70
931,35	3063,60
931,78	3055,38
932,20	3059,75
932,63	3061,20
933,06	3055,95
933,49	3059,98
933,92	3051,12
934,34	3065,78
934,77	3062,62
935,20	3068,68
935,63	3056,85
936,05	3061,32
936,48	3060,18
936,91	3059,30
937,34	3058,20
937,76	3053,42
938,19	3056,25
938,62	3054,35
939,05	3058,90
939,47	3054,95
939,90	3061,42
940,33	3053,48
940,76	3055,85
941,18	3061,05
941,61	3054,85
942,04	3054,98
942,47	3062,70
942,89	3067,58
943,32	3054,72
943,75	3061,35
944,17	3055,35
944,60	3056,25
945,03	3061,95
945,46	3052,65
945,88	3052,20
946,31	3061,38
946,74	3057,28
947,16	3059,90
947,59	3058,62
948,02	3057,30
948,44	3061,25
948,87	3063,35
949,30	3055,15
949,72	3056,25
950,15	3060,48
950,58	3052,25
951,00	3054,25
951,43	3054,68
951,86	3068,70
952,28	3063,45
952,71	3056,60
953,14	3056,22
953,56	3059,82
953,99	3053,40
954,42	3062,22
954,84	3057,15
955,27	3066,28
955,70	3050,80
956,12	3057,50
956,55	3055,28
956,98	3060,40
957,40	3055,70
957,83	3059,25
958,25	3052,15
958,68	3060,60
959,11	3071,38
959,53	3052,85
959,96	3058,60
960,38	3056,68
960,81	3053,12
961,24	3056,08
961,66	3055,18
962,09	3049,40
962,51	3053,08
962,94	3061,80
963,37	3059,62
963,79	3060,08
964,22	3061,38
964,64	3054,32
965,07	3058,35
965,49	3056,70
965,92	3057,82
966,35	3056,10
966,77	3056,00
967,20	3062,10
967,62	3056,70
968,05	3057,58
968,47	3060,55
968,90	3055,20
969,32	3054,98
969,75	3062,90
970,17	3077,05
970,60	3059,25
971,03	3057,35
971,45	3059,30
971,88	3054,58
972,30	3054,78
972,73	3059,40
973,15	3056,62
973,58	3055,78
974,00	3054,18
974,43	3054,68
974,85	3055,20
975,28	3058,98
975,70	3058,02
976,13	3058,12
976,55	3057,40
976,98	3054,65
977,40	3055,98
977,83	3054,50
978,25	3057,62
978,68	3052,92
979,10	3060,30
979,53	3057,48
979,95	3057,48
980,37	3056,40
980,80	3055,35
981,22	3061,28
981,65	3061,58
982,07	3054,20
982,50	3059,52
982,92	3060,90
983,35	3055,40
983,77	3057,28
984,20	3054,92
984,62	3056,45
985,04	3054,52
985,47	3061,45
985,89	3061,00
986,32	3052,70
986,74	3051,65
987,17	3054,82
987,59	3061,52
988,01	3056,62
988,44	3054,38
988,86	3059,22
989,29	3055,18
989,71	3055,95
990,13	3058,10
990,56	3057,45
990,98	3054,85
991,41	3054,90
991,83	3058,18
992,25	3055,70
992,68	3057,15
993,10	3065,32
993,53	3056,78
993,95	3053,28
994,37	3055,62
994,80	3056,32
995,22	3056,80
995,64	3059,32
996,07	3061,45
996,49	3057,08
996,91	3055,38
997,34	3052,82
997,76	3052,95
998,18	3050,30
998,61	3062,10
999,03	3058,68
999,45	3055,58
999,88	3056,80
1000,30	3052,98
1000,72	3064,52
1001,15	3057,38
1001,57	3054,72
1001,99	3063,48
1002,42	3054,18
1002,84	3058,48
1003,26	3060,05
1003,69	3057,12
1004,11	3058,10
1004,53	3057,82
1004,96	3060,68
1005,38	3052,95
1005,80	3059,58
1006,22	3060,62
1006,65	3064,00
1007,07	3057,10
1007,49	3052,35
1007,92	3061,45
1008,34	3053,28
1008,76	3054,65
1009,18	3051,58
1009,61	3056,65
1010,03	3055,48
1010,45	3073,18
1010,87	3062,22
1011,30	3059,00
1011,72	3057,62
1012,14	3058,82
1012,56	3061,32
1012,99	3055,92
1013,41	3059,65
1013,83	3059,72
1014,25	3058,30
1014,68	3056,92
1015,10	3053,40
1015,52	3063,05
1015,94	3053,40
1016,37	3059,42
1016,79	3055,62
1017,21	3057,25
1017,63	3054,52
1018,05	3059,65
1018,48	3056,22
1018,90	3055,80
1019,32	3056,82
1019,74	3050,98
1020,16	3071,45
1020,59	3062,58
1021,01	3060,38
1021,43	3054,00
1021,85	3057,78
1022,27	3057,05
1022,69	3059,80
1023,12	3059,62
1023,54	3056,60
1023,96	3074,20
1024,38	3063,20
1024,80	3059,55
1025,22	3059,88
1025,65	3058,00
1026,07	3058,02
1026,49	3061,75
1026,91	3055,22
1027,33	3053,95
1027,75	3066,72
1028,17	3061,62
1028,60	3057,68
1029,02	3056,02
1029,44	3059,38
1029,86	3055,52
1030,28	3067,52
1030,70	3056,58
1031,12	3056,10
1031,54	3059,02
1031,97	3062,62
1032,39	3054,92
1032,81	3056,98
1033,23	3060,12
1033,65	3056,12
1034,07	3061,05
1034,49	3054,58
1034,91	3056,45
1035,33	3060,65
1035,75	3062,60
1036,18	3056,68
1036,60	3067,10
1037,02	3054,35
1037,44	3055,78
1037,86	3057,22
1038,28	3051,85
1038,70	3061,38
1039,12	3061,60
1039,54	3060,70
1039,96	3063,35
1040,38	3064,40
1040,80	3057,18
1041,22	3055,22
1041,64	3058,92
1042,06	3056,58
1042,48	3063,40
1042,90	3064,60
1043,32	3059,35
1043,74	3062,40
1044,17	3054,85
1044,59	3061,78
1045,01	3054,10
1045,43	3055,08
1045,85	3055,88
1046,27	3053,40
1046,69	3059,42
1047,11	3062,35
1047,53	3053,75
1047,95	3058,18
1048,37	3061,28
1048,79	3054,40
1049,21	3063,32
1049,63	3060,42
1050,05	3060,88
1050,47	3054,35
1050,89	3055,60
1051,31	3058,58
1051,72	3059,98
1052,14	3064,35
1052,56	3061,85
1052,98	3058,48
1053,40	3062,50
1053,82	3050,90
1054,24	3059,02
1054,66	3051,85
1055,08	3057,88
1055,50	3055,62
1055,92	3058,38
1056,34	3061,58
1056,76	3067,20
1057,18	3062,08
1057,60	3062,32
1058,02	3059,22
1058,44	3073,65
1058,86	3053,32
1059,28	3059,98
1059,69	3061,00
1060,11	3058,88
1060,53	3056,82
1060,95	3057,35
1061,37	3061,92
1061,79	3057,60
1062,21	3057,02
1062,63	3060,95
1063,05	3064,28
1063,47	3060,72
1063,88	3058,15
1064,30	3054,92
1064,72	3062,98
1065,14	3062,02
1065,56	3058,52
1065,98	3055,20
1066,40	3052,98
1066,82	3061,52
1067,23	3057,20
1067,65	3059,75
1068,07	3057,70
1068,49	3055,32
1068,91	3065,00
1069,33	3059,62
1069,75	3054,92
1070,16	3054,48
1070,58	3062,68
1071,00	3062,82
1071,42	3064,55
1071,84	3055,90
1072,26	3060,38
1072,67	3055,95
1073,09	3054,90
1073,51	3053,55
1073,93	3060,10
1074,35	3057,05
1074,77	3051,92
1075,18	3056,58
1075,60	3055,68
1076,02	3059,00
1076,44	3055,30
1076,86	3052,40
1077,27	3058,78
1077,69	3060,12
1078,11	3057,48
1078,53	3061,98
1078,94	3063,35
1079,36	3049,90
1079,78	3058,70
1080,20	3057,88
1080,62	3059,20
1081,03	3061,05
1081,45	3058,15
1081,87	3055,65
1082,29	3059,48
1082,70	3059,10
1083,12	3056,30
1083,54	3055,82
1083,96	3059,40
1084,37	3063,55
1084,79	3058,00
1085,21	3056,05
1085,63	3064,60
1086,04	3055,10
1086,46	3055,12
1086,88	3059,38
1087,30	3053,02
1087,71	3061,20
1088,13	3282,98
1088,55	3057,50
1088,96	3053,80
1089,38	3056,95
1089,80	3056,78
1090,22	3063,85
1090,63	3057,55
1091,05	3055,18
1091,47	3059,75
1091,88	3056,92
1092,30	3053,85
1092,72	3059,48
1093,13	3054,60
1093,55	3057,65
1093,97	3059,25
1094,38	3057,50
1094,80	3056,65
1095,22	3058,08
1095,63	3054,68
1096,05	3057,10
1096,47	3059,62
1096,88	3054,00
1097,30	3057,98
1097,72	3055,10
1098,13	3060,98
1098,55	3060,72
1098,97	3062,30
1099,38	3055,68
1099,80	3056,98
1100,21	3055,80
1100,63	3056,18
1101,05	3055,72
1101,46	3059,60
1101,88	3052,98
1102,30	3056,05
1102,71	3056,65
1103,13	3057,40
1103,54	3058,48
1103,96	3055,75
1104,38	3064,68
1104,79	3050,48
1105,21	3057,72
1105,62	3058,08
1106,04	3056,82
1106,46	3057,88
1106,87	3051,58
1107,29	3055,28
1107,70	3062,20
1108,12	3053,50
1108,54	3060,22
1108,95	3058,30
1109,37	3056,40
1109,78	3051,48
1110,20	3057,30
1110,61	3052,22
1111,03	3052,22
1111,44	3052,22
1111,86	3052,22
1112,28	3052,22
1112,69	3052,22
1113,11	3052,22
1113,52	3052,22
1113,94	3052,22
1114,35	3052,22
1114,77	3052,22
1115,18	3052,22
1115,60	3052,22
1116,01	3052,22
1116,43	3052,22
1116,84	3052,22
1117,26	3052,22
1117,67	3052,22
1118,09	3052,22
1118,50	3052,22
1118,92	3052,22
>>>>>End Processed Spectral Data<<<<<
