SpectraSuite Data File
++++++++++++++++++++++++++++++++++++
Date: Tue Jul 12 15:41:34 EEST 2011
User: OO Maya
Dark Spectrum Present: No
Reference Spectrum Present: No
Number of Sampled Component Spectra: 1
Spectrometers: MAYP11278
Integration Time (usec): 40000 (MAYP11278)
Spectra Averaged: 40 (MAYP11278)
Boxcar Smoothing: 0 (MAYP11278)
Correct for Electrical Dark: No (MAYP11278)
Strobe/Lamp Enabled: No (MAYP11278)
Correct for Detector Non-linearity: No (MAYP11278)
Correct for Stray Light: No (MAYP11278)
Number of Pixels in Processed Spectrum: 2068
>>>>>Begin Processed Spectral Data<<<<<
200,00	3058,42
200,47	2995,10
200,95	2995,68
201,42	2992,22
201,89	3063,52
202,37	3065,15
202,84	3059,48
203,31	3062,85
203,79	3067,40
204,26	3061,85
204,73	3060,98
205,20	3061,20
205,68	3065,58
206,15	3065,12
206,62	3070,80
207,10	3065,28
207,57	3070,32
208,04	3063,70
208,51	3064,98
208,99	3077,68
209,46	3065,52
209,93	3059,38
210,41	3061,42
210,88	3062,20
211,35	3066,25
211,82	3067,80
212,30	3064,02
212,77	3065,32
213,24	3069,38
213,71	3070,18
214,19	3067,20
214,66	3061,28
215,13	3065,65
215,60	3061,20
216,08	3068,95
216,55	3072,00
217,02	3064,35
217,49	3061,80
217,96	3072,05
218,44	3063,90
218,91	3068,80
219,38	3077,75
219,85	3064,88
220,33	3067,80
220,80	3063,52
221,27	3068,52
221,74	3067,48
222,21	3063,50
222,69	3063,92
223,16	3068,40
223,63	3066,75
224,10	3066,20
224,57	3073,20
225,04	3067,12
225,52	3065,45
225,99	3075,08
226,46	3064,88
226,93	3073,30
227,40	3066,48
227,87	3070,05
228,35	3069,88
228,82	3069,30
229,29	3063,90
229,76	3065,52
230,23	3071,95
230,70	3061,02
231,18	3064,32
231,65	3064,28
232,12	3065,28
232,59	3072,38
233,06	3065,68
233,53	3071,55
234,00	3062,40
234,48	3070,40
234,95	3064,15
235,42	3069,25
235,89	3068,62
236,36	3065,00
236,83	3061,72
237,30	3066,85
237,77	3062,78
238,24	3067,35
238,72	3069,92
239,19	3065,28
239,66	3069,65
240,13	3068,85
240,60	3069,50
241,07	3065,82
241,54	3067,25
242,01	3064,32
242,48	3069,50
242,95	3073,45
243,42	3068,35
243,90	3069,65
244,37	3061,55
244,84	3068,32
245,31	3068,78
245,78	3083,10
246,25	3066,58
246,72	3065,40
247,19	3064,80
247,66	3061,58
248,13	3070,18
248,60	3075,92
249,07	3066,25
249,54	3069,75
250,01	3065,35
250,48	3067,50
250,95	3067,48
251,42	3061,38
251,89	3067,70
252,36	3071,78
252,83	3066,95
253,30	3065,82
253,77	3072,00
254,24	3073,15
254,71	3063,52
255,18	3061,55
255,65	3072,38
256,12	3074,22
256,59	3066,05
257,06	3072,25
257,53	3072,10
258,00	3063,48
258,47	3065,28
258,94	3070,38
259,41	3069,58
259,88	3069,68
260,35	3059,72
260,82	3064,78
261,29	3069,05
261,76	3070,25
262,23	3073,80
262,70	3067,68
263,17	3077,85
263,64	3072,90
264,11	3064,40
264,58	3072,28
265,05	3068,40
265,52	3065,20
265,99	3070,68
266,46	3069,72
266,93	3070,70
267,40	3066,48
267,87	3070,50
268,34	3069,90
268,81	3071,42
269,28	3082,95
269,74	3069,70
270,21	3066,88
270,68	3070,28
271,15	3070,02
271,62	3075,48
272,09	3064,52
272,56	3064,68
273,03	3074,68
273,50	3062,70
273,97	3067,02
274,44	3068,65
274,90	3062,02
275,37	3072,50
275,84	3071,75
276,31	3065,58
276,78	3066,25
277,25	3072,35
277,72	3071,28
278,19	3067,60
278,66	3068,10
279,12	3068,05
279,59	3068,58
280,06	3061,15
280,53	3064,15
281,00	3064,12
281,47	3069,75
281,94	3073,30
282,40	3065,38
282,87	3067,70
283,34	3061,45
283,81	3062,35
284,28	3059,75
284,75	3066,75
285,21	3085,22
285,68	3070,42
286,15	3071,45
286,62	3066,58
287,09	3065,95
287,56	3070,95
288,02	3071,12
288,49	3062,62
288,96	3064,90
289,43	3062,82
289,90	3085,10
290,36	3065,12
290,83	3064,72
291,30	3085,28
291,77	3070,02
292,24	3083,12
292,70	3065,12
293,17	3071,38
293,64	3066,55
294,11	3068,40
294,58	3069,12
295,04	3065,55
295,51	3062,42
295,98	3071,40
296,45	3066,85
296,91	3068,70
297,38	3069,98
297,85	3061,00
298,32	3069,02
298,79	3075,32
299,25	3065,08
299,72	3069,62
300,19	3059,80
300,66	3073,70
301,12	3062,58
301,59	3068,08
302,06	3065,18
302,52	3072,00
302,99	3078,48
303,46	3065,25
303,93	3073,08
304,39	3065,25
304,86	3070,52
305,33	3069,00
305,80	3065,95
306,26	3068,52
306,73	3068,10
307,20	3075,80
307,66	3075,42
308,13	3068,15
308,60	3069,35
309,07	3071,60
309,53	3064,45
310,00	3076,25
310,47	3065,72
310,93	3071,42
311,40	3064,42
311,87	3070,68
312,33	3071,30
312,80	3073,28
313,27	3064,82
313,73	3072,05
314,20	3074,28
314,67	3063,20
315,13	3065,15
315,60	3064,08
316,07	3068,15
316,53	3068,38
317,00	3069,48
317,47	3070,12
317,93	3066,22
318,40	3066,10
318,87	3068,78
319,33	3069,78
319,80	3072,62
320,26	3070,68
320,73	3072,30
321,20	3069,78
321,66	3069,18
322,13	3068,05
322,60	3074,12
323,06	3068,68
323,53	3076,68
323,99	3066,68
324,46	3069,42
324,93	3068,60
325,39	3064,78
325,86	3064,12
326,32	3071,88
326,79	3070,58
327,26	3068,05
327,72	3072,65
328,19	3069,22
328,65	3080,78
329,12	3066,80
329,59	3066,98
330,05	3062,68
330,52	3070,52
330,98	3076,95
331,45	3070,55
331,91	3068,75
332,38	3061,55
332,85	3060,70
333,31	3077,95
333,78	3068,28
334,24	3071,75
334,71	3062,80
335,17	3070,30
335,64	3068,08
336,10	3064,40
336,57	3067,58
337,03	3065,92
337,50	3071,70
337,96	3069,32
338,43	3070,22
338,90	3069,60
339,36	3068,28
339,83	3067,75
340,29	3065,98
340,76	3064,58
341,22	3070,00
341,69	3071,00
342,15	3075,98
342,62	3063,80
343,08	3077,80
343,55	3070,05
344,01	3069,68
344,48	3073,70
344,94	3071,22
345,41	3068,50
345,87	3086,68
346,34	3061,28
346,80	3069,50
347,27	3067,28
347,73	3070,00
348,19	3067,08
348,66	3066,52
349,12	3078,55
349,59	3071,50
350,05	3064,22
350,52	3063,75
350,98	3064,12
351,45	3069,40
351,91	3074,25
352,38	3064,78
352,84	3068,52
353,30	3070,35
353,77	3071,40
354,23	3066,98
354,70	3068,75
355,16	3063,95
355,63	3067,72
356,09	3069,95
356,55	3065,30
357,02	3064,08
357,48	3076,00
357,95	3065,25
358,41	3074,92
358,87	3069,20
359,34	3063,50
359,80	3067,18
360,27	3071,00
360,73	3067,60
361,19	3064,98
361,66	3070,05
362,12	3077,88
362,59	3069,40
363,05	3065,70
363,51	3069,40
363,98	3071,25
364,44	3069,65
364,91	3070,25
365,37	3070,70
365,83	3076,42
366,30	3063,75
366,76	3077,58
367,22	3062,10
367,69	3078,50
368,15	3071,10
368,61	3062,65
369,08	3064,58
369,54	3065,48
370,00	3067,02
370,47	3073,70
370,93	3074,22
371,39	3066,78
371,86	3068,25
372,32	3066,05
372,78	3066,32
373,25	3069,00
373,71	3081,55
374,17	3068,12
374,64	3066,78
375,10	3070,48
375,56	3065,90
376,03	3061,88
376,49	3069,32
376,95	3066,12
377,42	3068,60
377,88	3061,12
378,34	3061,78
378,80	3071,32
379,27	3062,92
379,73	3071,15
380,19	3069,15
380,66	3066,35
381,12	3064,78
381,58	3071,00
382,04	3065,15
382,51	3063,05
382,97	3070,35
383,43	3067,22
383,89	3061,85
384,36	3063,65
384,82	3066,70
385,28	3059,95
385,74	3073,12
386,21	3065,62
386,67	3063,50
387,13	3063,12
387,59	3068,30
388,06	3069,50
388,52	3065,80
388,98	3068,20
389,44	3064,42
389,91	3071,08
390,37	3078,45
390,83	3067,58
391,29	3074,52
391,75	3072,80
392,22	3061,70
392,68	3067,10
393,14	3066,80
393,60	3073,70
394,06	3068,48
394,53	3091,70
394,99	3069,80
395,45	3066,85
395,91	3067,42
396,37	3077,20
396,84	3063,58
397,30	3061,20
397,76	3073,05
398,22	3070,30
398,68	3073,82
399,14	3065,92
399,61	3071,50
400,07	3065,35
400,53	3071,20
400,99	3068,30
401,45	3067,80
401,91	3067,92
402,38	3068,58
402,84	3068,58
403,30	3078,92
403,76	3067,42
404,22	3072,35
404,68	3066,98
405,14	3069,08
405,61	3091,25
406,07	3064,08
406,53	3069,72
406,99	3071,92
407,45	3062,65
407,91	3068,00
408,37	3064,98
408,83	3064,58
409,29	3072,58
409,76	3063,75
410,22	3066,95
410,68	3066,98
411,14	3070,72
411,60	3069,60
412,06	3067,42
412,52	3064,52
412,98	3073,88
413,44	3068,05
413,90	3072,20
414,36	3077,98
414,83	3072,70
415,29	3062,32
415,75	3071,65
416,21	3070,55
416,67	3076,55
417,13	3069,40
417,59	3068,62
418,05	3072,08
418,51	3061,32
418,97	3072,10
419,43	3064,12
419,89	3072,48
420,35	3063,82
420,81	3072,58
421,27	3063,60
421,73	3060,42
422,19	3072,05
422,65	3063,45
423,11	3069,00
423,57	3069,75
424,03	3073,25
424,49	3065,05
424,96	3074,30
425,42	3070,50
425,88	3066,32
426,34	3076,65
426,80	3069,50
427,26	3067,62
427,72	3069,40
428,18	3066,92
428,64	3071,42
429,10	3066,15
429,56	3070,20
430,02	3063,22
430,47	3068,78
430,93	3067,18
431,39	3069,55
431,85	3066,40
432,31	3068,60
432,77	3069,52
433,23	3071,92
433,69	3067,15
434,15	3072,18
434,61	3068,32
435,07	3074,12
435,53	3066,88
435,99	3072,10
436,45	3072,82
436,91	3071,90
437,37	3062,20
437,83	3072,02
438,29	3070,90
438,75	3067,15
439,21	3070,30
439,67	3086,22
440,12	3061,68
440,58	3065,05
441,04	3075,45
441,50	3073,15
441,96	3068,05
442,42	3066,22
442,88	3070,18
443,34	3065,45
443,80	3072,45
444,26	3062,22
444,72	3070,80
445,17	3069,10
445,63	3060,62
446,09	3071,05
446,55	3070,15
447,01	3068,82
447,47	3066,75
447,93	3068,10
448,39	3087,45
448,85	3069,82
449,30	3072,28
449,76	3071,98
450,22	3064,05
450,68	3065,92
451,14	3081,72
451,60	3061,30
452,06	3067,32
452,51	3069,02
452,97	3064,10
453,43	3077,25
453,89	3069,90
454,35	3068,28
454,81	3066,52
455,26	3068,65
455,72	3066,28
456,18	3069,18
456,64	3066,48
457,10	3067,25
457,56	3070,10
458,01	3069,85
458,47	3066,65
458,93	3064,05
459,39	3064,75
459,85	3064,52
460,30	3068,82
460,76	3072,08
461,22	3063,28
461,68	3073,82
462,14	3065,45
462,59	3065,85
463,05	3068,92
463,51	3069,28
463,97	3066,98
464,43	3069,25
464,88	3071,85
465,34	3064,90
465,80	3074,15
466,26	3067,50
466,71	3066,90
467,17	3062,08
467,63	3068,35
468,09	3067,48
468,54	3066,55
469,00	3066,08
469,46	3061,78
469,92	3072,80
470,37	3073,70
470,83	3064,60
471,29	3062,45
471,75	3072,18
472,20	3064,88
472,66	3068,50
473,12	3068,82
473,58	3064,70
474,03	3065,12
474,49	3071,78
474,95	3068,08
475,40	3068,05
475,86	3073,70
476,32	3064,52
476,78	3068,20
477,23	3071,05
477,69	3065,90
478,15	3064,85
478,60	3070,98
479,06	3070,22
479,52	3066,52
479,97	3066,52
480,43	3065,85
480,89	3065,28
481,34	3066,60
481,80	3074,98
482,26	3067,75
482,71	3064,48
483,17	3068,88
483,63	3062,70
484,08	3070,48
484,54	3066,75
485,00	3072,40
485,45	3065,82
485,91	3066,18
486,37	3074,30
486,82	3069,82
487,28	3071,22
487,74	3063,60
488,19	3077,38
488,65	3068,95
489,10	3066,25
489,56	3065,55
490,02	3068,85
490,47	3067,65
490,93	3062,90
491,39	3069,52
491,84	3062,40
492,30	3066,55
492,75	3074,50
493,21	3070,65
493,67	3069,55
494,12	3062,30
494,58	3065,95
495,03	3061,48
495,49	3067,85
495,95	3062,08
496,40	3063,22
496,86	3063,90
497,31	3069,12
497,77	3069,75
498,23	3072,08
498,68	3063,08
499,14	3066,82
499,59	3063,78
500,05	3066,62
500,50	3062,15
500,96	3071,98
501,41	3069,32
501,87	3068,82
502,33	3063,85
502,78	3066,85
503,24	3068,82
503,69	3063,32
504,15	3067,98
504,60	3066,02
505,06	3066,95
505,51	3078,28
505,97	3074,50
506,42	3065,38
506,88	3068,80
507,33	3068,02
507,79	3080,30
508,24	3068,22
508,70	3065,10
509,15	3069,18
509,61	3065,60
510,06	3071,35
510,52	3066,72
510,97	3068,80
511,43	3071,58
511,88	3071,92
512,34	3068,18
512,79	3071,00
513,25	3071,75
513,70	3064,05
514,16	3069,22
514,61	3072,38
515,07	3066,95
515,52	3073,70
515,98	3068,90
516,43	3065,48
516,89	3065,50
517,34	3062,12
517,80	3067,40
518,25	3067,52
518,70	3066,30
519,16	3074,50
519,61	3075,52
520,07	3065,62
520,52	3062,38
520,98	3064,98
521,43	3070,22
521,89	3060,62
522,34	3072,48
522,79	3075,72
523,25	3062,62
523,70	3067,85
524,16	3073,75
524,61	3073,20
525,06	3084,15
525,52	3073,38
525,97	3069,45
526,43	3089,20
526,88	3067,42
527,33	3063,48
527,79	3062,70
528,24	3064,15
528,70	3071,00
529,15	3073,92
529,60	3070,22
530,06	3069,58
530,51	3063,82
530,97	3079,20
531,42	3071,58
531,87	3068,02
532,33	3077,00
532,78	3070,70
533,23	3073,32
533,69	3073,48
534,14	3070,18
534,59	3067,80
535,05	3069,40
535,50	3067,55
535,96	3071,88
536,41	3071,30
536,86	3067,28
537,32	3062,85
537,77	3071,58
538,22	3072,60
538,68	3064,20
539,13	3070,62
539,58	3068,98
540,03	3069,55
540,49	3067,55
540,94	3071,75
541,39	3066,60
541,85	3064,40
542,30	3068,15
542,75	3065,82
543,21	3068,10
543,66	3064,78
544,11	3071,65
544,57	3061,92
545,02	3072,02
545,47	3066,42
545,92	3067,78
546,38	3077,80
546,83	3072,85
547,28	3096,10
547,73	3063,05
548,19	3076,40
548,64	3069,35
549,09	3062,80
549,55	3071,95
550,00	3068,32
550,45	3066,05
550,90	3083,68
551,36	3063,12
551,81	3076,98
552,26	3072,15
552,71	3068,08
553,17	3067,18
553,62	3070,92
554,07	3067,22
554,52	3070,52
554,97	3070,15
555,43	3068,70
555,88	3067,70
556,33	3068,58
556,78	3065,02
557,24	3078,40
557,69	3067,38
558,14	3062,22
558,59	3069,72
559,04	3069,62
559,50	3078,60
559,95	3070,10
560,40	3062,78
560,85	3072,12
561,30	3066,78
561,76	3063,25
562,21	3069,35
562,66	3067,15
563,11	3080,08
563,56	3068,70
564,01	3074,40
564,47	3062,02
564,92	3069,20
565,37	3078,75
565,82	3068,42
566,27	3066,58
566,72	3064,95
567,18	3066,65
567,63	3062,90
568,08	3068,68
568,53	3068,05
568,98	3068,88
569,43	3066,45
569,88	3065,32
570,34	3069,28
570,79	3072,62
571,24	3065,98
571,69	3067,52
572,14	3065,52
572,59	3068,60
573,04	3069,58
573,49	3074,25
573,94	3067,40
574,40	3064,78
574,85	3068,88
575,30	3072,92
575,75	3066,15
576,20	3068,60
576,65	3071,35
577,10	3066,80
577,55	3066,75
578,00	3070,65
578,45	3070,75
578,91	3066,22
579,36	3069,65
579,81	3069,95
580,26	3065,22
580,71	3064,58
581,16	3069,35
581,61	3072,68
582,06	3070,52
582,51	3063,20
582,96	3069,75
583,41	3060,95
583,86	3072,72
584,31	3066,22
584,76	3069,08
585,21	3060,65
585,66	3074,20
586,11	3070,88
586,56	3066,00
587,01	3070,45
587,46	3072,40
587,92	3065,55
588,37	3068,12
588,82	3069,22
589,27	3066,52
589,72	3062,38
590,17	3066,88
590,62	3069,88
591,07	3066,60
591,52	3070,90
591,97	3064,95
592,42	3080,72
592,87	3065,20
593,32	3063,90
593,77	3068,15
594,22	3067,85
594,67	3071,25
595,12	3063,40
595,56	3071,25
596,01	3064,35
596,46	3063,22
596,91	3070,58
597,36	3069,08
597,81	3064,55
598,26	3061,80
598,71	3073,12
599,16	3065,32
599,61	3069,02
600,06	3064,08
600,51	3072,10
600,96	3065,10
601,41	3069,35
601,86	3075,40
602,31	3063,10
602,76	3064,58
603,21	3075,12
603,66	3071,68
604,11	3073,42
604,55	3069,72
605,00	3061,35
605,45	3067,80
605,90	3072,95
606,35	3067,40
606,80	3069,35
607,25	3071,20
607,70	3067,58
608,15	3072,38
608,60	3061,15
609,04	3081,05
609,49	3064,22
609,94	3069,00
610,39	3061,12
610,84	3060,15
611,29	3070,30
611,74	3064,80
612,19	3071,48
612,64	3067,00
613,08	3060,58
613,53	3066,22
613,98	3067,02
614,43	3065,50
614,88	3069,55
615,33	3069,05
615,78	3079,62
616,22	3073,70
616,67	3065,88
617,12	3065,38
617,57	3067,32
618,02	3061,40
618,47	3075,32
618,91	3072,08
619,36	3068,95
619,81	3081,50
620,26	3063,72
620,71	3061,98
621,16	3061,35
621,60	3061,02
622,05	3066,75
622,50	3065,88
622,95	3062,45
623,40	3065,22
623,84	3068,08
624,29	3070,68
624,74	3064,12
625,19	3065,58
625,64	3065,62
626,08	3071,40
626,53	3066,70
626,98	3067,58
627,43	3074,85
627,87	3066,25
628,32	3071,42
628,77	3074,02
629,22	3073,18
629,66	3062,92
630,11	3065,10
630,56	3073,45
631,01	3061,55
631,46	3068,18
631,90	3068,52
632,35	3064,40
632,80	3066,00
633,25	3069,15
633,69	3063,40
634,14	3069,75
634,59	3069,15
635,03	3061,40
635,48	3064,30
635,93	3070,58
636,38	3064,52
636,82	3068,78
637,27	3064,88
637,72	3071,02
638,16	3070,50
638,61	3072,75
639,06	3063,75
639,51	3067,18
639,95	3063,22
640,40	3064,42
640,85	3062,78
641,29	3064,68
641,74	3066,35
642,19	3060,18
642,63	3066,20
643,08	3065,38
643,53	3064,00
643,97	3070,95
644,42	3070,85
644,87	3063,60
645,31	3066,88
645,76	3061,60
646,21	3059,20
646,65	3068,82
647,10	3071,38
647,55	3062,10
647,99	3063,50
648,44	3066,32
648,89	3058,40
649,33	3065,70
649,78	3068,90
650,23	3063,55
650,67	3061,18
651,12	3065,28
651,56	3062,32
652,01	3067,62
652,46	3067,50
652,90	3069,90
653,35	3071,62
653,80	3067,48
654,24	3068,55
654,69	3061,95
655,13	3074,80
655,58	3069,52
656,03	3087,18
656,47	3064,22
656,92	3061,32
657,36	3063,75
657,81	3067,45
658,26	3061,05
658,70	3066,40
659,15	3063,25
659,59	3062,55
660,04	3067,15
660,48	3067,35
660,93	3065,45
661,38	3061,35
661,82	3070,82
662,27	3064,92
662,71	3066,40
663,16	3068,65
663,60	3070,30
664,05	3063,55
664,49	3068,48
664,94	3062,32
665,38	3087,35
665,83	3063,90
666,28	3071,90
666,72	3065,58
667,17	3061,62
667,61	3066,55
668,06	3062,28
668,50	3058,32
668,95	3068,70
669,39	3063,20
669,84	3063,70
670,28	3066,58
670,73	3062,28
671,17	3066,88
671,62	3061,50
672,06	3069,10
672,51	3067,68
672,95	3078,45
673,40	3072,55
673,84	3061,88
674,29	3067,12
674,73	3063,15
675,18	3078,80
675,62	3061,00
676,07	3060,85
676,51	3073,58
676,95	3066,75
677,40	3074,42
677,84	3078,42
678,29	3066,50
678,73	3068,25
679,18	3073,15
679,62	3085,00
680,07	3068,12
680,51	3068,70
680,96	3059,18
681,40	3063,62
681,84	3065,98
682,29	3064,72
682,73	3066,75
683,18	3065,78
683,62	3080,92
684,07	3061,20
684,51	3064,55
684,95	3065,80
685,40	3065,88
685,84	3066,42
686,29	3066,30
686,73	3058,60
687,17	3058,98
687,62	3065,10
688,06	3067,48
688,51	3069,15
688,95	3068,60
689,39	3067,98
689,84	3074,55
690,28	3067,95
690,73	3067,25
691,17	3068,82
691,61	3067,30
692,06	3063,80
692,50	3067,35
692,94	3062,38
693,39	3065,68
693,83	3063,48
694,27	3080,15
694,72	3069,88
695,16	3060,95
695,60	3064,40
696,05	3065,98
696,49	3062,05
696,94	3066,00
697,38	3060,32
697,82	3065,38
698,27	3065,40
698,71	3071,40
699,15	3068,48
699,59	3065,95
700,04	3066,35
700,48	3089,35
700,92	3068,82
701,37	3066,25
701,81	3075,45
702,25	3067,40
702,70	3064,18
703,14	3070,30
703,58	3060,28
704,03	3069,05
704,47	3072,40
704,91	3062,38
705,35	3064,35
705,80	3071,10
706,24	3071,18
706,68	3086,62
707,13	3062,28
707,57	3074,20
708,01	3061,65
708,45	3064,78
708,90	3067,50
709,34	3064,55
709,78	3064,72
710,22	3072,48
710,67	3071,50
711,11	3070,50
711,55	3062,05
711,99	3068,15
712,44	3064,50
712,88	3065,65
713,32	3068,40
713,76	3070,68
714,21	3067,92
714,65	3065,28
715,09	3067,38
715,53	3066,55
715,97	3064,12
716,42	3068,52
716,86	3066,92
717,30	3067,92
717,74	3061,00
718,18	3077,65
718,63	3066,75
719,07	3066,90
719,51	3076,15
719,95	3070,50
720,39	3064,68
720,84	3067,75
721,28	3064,48
721,72	3064,88
722,16	3060,15
722,60	3059,80
723,04	3069,08
723,49	3075,05
723,93	3063,35
724,37	3061,30
724,81	3065,90
725,25	3065,90
725,69	3062,80
726,14	3067,70
726,58	3064,02
727,02	3068,25
727,46	3065,35
727,90	3061,30
728,34	3060,55
728,78	3068,62
729,23	3060,25
729,67	3070,42
730,11	3059,98
730,55	3066,02
730,99	3065,22
731,43	3064,90
731,87	3078,08
732,31	3063,42
732,76	3073,40
733,20	3068,75
733,64	3064,65
734,08	3072,88
734,52	3061,60
734,96	3072,25
735,40	3060,60
735,84	3065,05
736,28	3068,95
736,72	3066,52
737,16	3068,22
737,61	3060,80
738,05	3070,25
738,49	3067,28
738,93	3063,78
739,37	3070,02
739,81	3068,08
740,25	3066,15
740,69	3080,25
741,13	3064,45
741,57	3070,35
742,01	3071,32
742,45	3070,42
742,89	3065,40
743,33	3063,52
743,77	3066,72
744,21	3063,55
744,65	3071,35
745,09	3067,20
745,53	3063,85
745,98	3069,48
746,42	3068,12
746,86	3065,52
747,30	3066,60
747,74	3061,52
748,18	3062,88
748,62	3065,65
749,06	3073,32
749,50	3071,40
749,94	3067,12
750,38	3070,00
750,82	3075,12
751,26	3058,38
751,70	3060,88
752,14	3060,85
752,58	3070,72
753,02	3064,62
753,45	3062,62
753,89	3068,65
754,33	3080,38
754,77	3068,00
755,21	3063,88
755,65	3059,20
756,09	3064,72
756,53	3063,75
756,97	3066,25
757,41	3076,00
757,85	3063,20
758,29	3064,45
758,73	3059,85
759,17	3064,28
759,61	3060,68
760,05	3064,90
760,49	3065,75
760,93	3071,00
761,37	3064,28
761,80	3073,15
762,24	3065,25
762,68	3065,25
763,12	3064,60
763,56	3065,28
764,00	3060,65
764,44	3063,90
764,88	3068,78
765,32	3065,70
765,76	3068,25
766,20	3072,68
766,63	3067,20
767,07	3060,80
767,51	3067,35
767,95	3071,72
768,39	3064,62
768,83	3060,75
769,27	3061,60
769,71	3067,70
770,14	3060,62
770,58	3059,85
771,02	3063,85
771,46	3065,82
771,90	3063,60
772,34	3067,98
772,78	3070,00
773,21	3065,68
773,65	3073,35
774,09	3060,82
774,53	3066,25
774,97	3062,58
775,41	3060,78
775,84	3068,08
776,28	3065,80
776,72	3067,65
777,16	3061,35
777,60	3064,85
778,04	3064,05
778,47	3059,12
778,91	3064,95
779,35	3060,35
779,79	3067,58
780,23	3066,60
780,66	3061,10
781,10	3064,10
781,54	3063,30
781,98	3068,88
782,42	3069,75
782,85	3063,95
783,29	3067,85
783,73	3079,60
784,17	3074,02
784,61	3065,15
785,04	3072,45
785,48	3069,22
785,92	3062,58
786,36	3065,85
786,79	3061,38
787,23	3064,90
787,67	3068,45
788,11	3070,98
788,54	3066,30
788,98	3064,38
789,42	3064,25
789,86	3063,12
790,29	3071,40
790,73	3070,28
791,17	3072,22
791,60	3062,08
792,04	3064,92
792,48	3067,20
792,92	3063,12
793,35	3064,55
793,79	3063,52
794,23	3065,15
794,67	3060,62
795,10	3063,68
795,54	3069,75
795,98	3064,00
796,41	3066,42
796,85	3063,40
797,29	3088,40
797,72	3071,88
798,16	3065,50
798,60	3067,18
799,03	3066,98
799,47	3062,45
799,91	3067,18
800,34	3065,65
800,78	3066,30
801,22	3062,58
801,65	3062,38
802,09	3065,30
802,53	3072,32
802,96	3066,82
803,40	3059,88
803,84	3075,90
804,27	3067,38
804,71	3064,08
805,15	3069,00
805,58	3066,68
806,02	3060,92
806,46	3069,48
806,89	3075,02
807,33	3070,38
807,76	3068,70
808,20	3064,35
808,64	3062,92
809,07	3075,08
809,51	3078,75
809,95	3075,60
810,38	3071,02
810,82	3078,75
811,25	3064,20
811,69	3067,15
812,13	3062,15
812,56	3070,58
813,00	3063,20
813,43	3063,00
813,87	3061,30
814,30	3067,72
814,74	3072,00
815,18	3082,42
815,61	3063,35
816,05	3064,50
816,48	3068,20
816,92	3075,50
817,35	3069,48
817,79	3067,32
818,23	3071,70
818,66	3069,38
819,10	3067,82
819,53	3063,28
819,97	3063,02
820,40	3062,92
820,84	3069,88
821,27	3067,32
821,71	3071,48
822,14	3064,08
822,58	3069,95
823,01	3071,80
823,45	3065,95
823,88	3068,05
824,32	3063,45
824,75	3066,92
825,19	3064,72
825,63	3074,00
826,06	3062,98
826,50	3065,60
826,93	3066,80
827,37	3061,85
827,80	3066,92
828,23	3063,68
828,67	3068,48
829,10	3067,00
829,54	3062,72
829,97	3064,18
830,41	3057,22
830,84	3065,05
831,28	3070,75
831,71	3072,30
832,15	3064,05
832,58	3068,58
833,02	3069,18
833,45	3064,28
833,89	3073,72
834,32	3064,18
834,75	3078,00
835,19	3071,00
835,62	3070,12
836,06	3060,95
836,49	3066,08
836,93	3063,72
837,36	3070,80
837,79	3069,12
838,23	3065,25
838,66	3064,08
839,10	3072,45
839,53	3065,88
839,97	3066,28
840,40	3067,08
840,83	3072,05
841,27	3061,58
841,70	3064,92
842,14	3070,75
842,57	3065,60
843,00	3075,22
843,44	3078,88
843,87	3067,32
844,31	3072,02
844,74	3058,20
845,17	3060,78
845,61	3061,00
846,04	3064,40
846,47	3071,68
846,91	3066,52
847,34	3070,62
847,77	3064,95
848,21	3063,18
848,64	3068,80
849,08	3063,70
849,51	3073,22
849,94	3064,48
850,38	3062,05
850,81	3064,80
851,24	3062,72
851,68	3065,02
852,11	3064,65
852,54	3068,88
852,98	3071,15
853,41	3070,40
853,84	3065,52
854,28	3071,50
854,71	3063,22
855,14	3069,35
855,57	3072,40
856,01	3063,22
856,44	3063,52
856,87	3071,95
857,31	3061,78
857,74	3070,55
858,17	3060,62
858,61	3062,60
859,04	3070,68
859,47	3070,75
859,90	3066,80
860,34	3067,82
860,77	3064,32
861,20	3061,92
861,63	3072,12
862,07	3059,78
862,50	3062,08
862,93	3064,02
863,37	3065,55
863,80	3066,25
864,23	3069,35
864,66	3062,98
865,10	3064,78
865,53	3067,38
865,96	3063,18
866,39	3064,50
866,82	3066,60
867,26	3060,25
867,69	3065,72
868,12	3065,02
868,55	3059,38
868,99	3066,20
869,42	3061,85
869,85	3068,62
870,28	3062,48
870,71	3067,20
871,15	3066,55
871,58	3064,32
872,01	3066,75
872,44	3067,85
872,87	3071,70
873,31	3079,08
873,74	3060,60
874,17	3063,45
874,60	3070,30
875,03	3062,22
875,47	3066,60
875,90	3067,60
876,33	3064,25
876,76	3070,15
877,19	3068,88
877,62	3063,10
878,06	3061,50
878,49	3070,90
878,92	3059,55
879,35	3067,30
879,78	3064,50
880,21	3065,80
880,64	3064,45
881,08	3065,52
881,51	3067,45
881,94	3066,38
882,37	3075,18
882,80	3063,38
883,23	3059,78
883,66	3065,20
884,09	3064,75
884,53	3070,42
884,96	3066,05
885,39	3064,55
885,82	3067,58
886,25	3064,28
886,68	3061,75
887,11	3069,12
887,54	3066,02
887,97	3067,20
888,40	3069,70
888,84	3065,30
889,27	3061,85
889,70	3073,98
890,13	3062,05
890,56	3064,72
890,99	3064,82
891,42	3064,55
891,85	3084,65
892,28	3061,32
892,71	3068,92
893,14	3063,52
893,57	3069,60
894,00	3068,55
894,43	3058,28
894,86	3063,90
895,29	3065,20
895,73	3061,12
896,16	3066,15
896,59	3066,50
897,02	3063,52
897,45	3065,00
897,88	3065,28
898,31	3063,82
898,74	3065,30
899,17	3068,48
899,60	3061,38
900,03	3062,12
900,46	3061,82
900,89	3066,98
901,32	3073,12
901,75	3063,50
902,18	3060,35
902,61	3065,02
903,04	3069,80
903,47	3067,52
903,90	3063,62
904,33	3075,05
904,76	3075,95
905,19	3064,52
905,62	3063,38
906,05	3075,05
906,48	3061,95
906,91	3068,60
907,34	3062,62
907,76	3064,45
908,19	3061,28
908,62	3071,95
909,05	3066,30
909,48	3071,55
909,91	3066,62
910,34	3066,25
910,77	3068,45
911,20	3073,02
911,63	3063,72
912,06	3058,70
912,49	3066,70
912,92	3067,55
913,35	3065,22
913,78	3063,88
914,21	3063,05
914,63	3067,40
915,06	3064,50
915,49	3068,78
915,92	3067,08
916,35	3066,00
916,78	3062,38
917,21	3061,98
917,64	3065,22
918,07	3062,00
918,50	3070,25
918,92	3060,65
919,35	3071,88
919,78	3063,10
920,21	3067,98
920,64	3062,40
921,07	3063,35
921,50	3066,30
921,93	3067,80
922,35	3069,68
922,78	3066,38
923,21	3072,85
923,64	3069,40
924,07	3064,72
924,50	3062,15
924,92	3062,55
925,35	3068,08
925,78	3072,88
926,21	3068,35
926,64	3061,52
927,07	3069,22
927,49	3062,98
927,92	3069,55
928,35	3076,82
928,78	3063,58
929,21	3069,92
929,64	3061,12
930,06	3077,38
930,49	3066,08
930,92	3059,20
931,35	3070,62
931,78	3064,70
932,20	3066,80
932,63	3068,98
933,06	3063,20
933,49	3069,15
933,92	3059,62
934,34	3073,55
934,77	3071,55
935,20	3078,32
935,63	3065,72
936,05	3071,90
936,48	3068,92
936,91	3067,15
937,34	3067,35
937,76	3060,90
938,19	3065,30
938,62	3062,98
939,05	3067,55
939,47	3060,30
939,90	3069,08
940,33	3061,95
940,76	3066,28
941,18	3068,72
941,61	3060,85
942,04	3067,10
942,47	3070,92
942,89	3078,52
943,32	3064,10
943,75	3069,75
944,17	3061,75
944,60	3064,20
945,03	3067,32
945,46	3062,92
945,88	3060,10
946,31	3067,75
946,74	3064,98
947,16	3069,42
947,59	3065,95
948,02	3068,18
948,44	3066,85
948,87	3070,28
949,30	3064,20
949,72	3063,82
950,15	3070,80
950,58	3059,78
951,00	3061,35
951,43	3062,30
951,86	3078,52
952,28	3072,32
952,71	3063,32
953,14	3063,72
953,56	3070,22
953,99	3058,78
954,42	3070,30
954,84	3063,85
955,27	3074,72
955,70	3062,75
956,12	3062,55
956,55	3067,95
956,98	3064,52
957,40	3063,15
957,83	3068,75
958,25	3062,15
958,68	3067,45
959,11	3084,65
959,53	3061,50
959,96	3068,20
960,38	3068,10
960,81	3064,58
961,24	3063,55
961,66	3064,22
962,09	3058,50
962,51	3062,98
962,94	3070,18
963,37	3070,00
963,79	3072,05
964,22	3067,52
964,64	3062,75
965,07	3066,55
965,49	3062,78
965,92	3066,38
966,35	3063,72
966,77	3066,12
967,20	3069,90
967,62	3063,75
968,05	3063,12
968,47	3070,32
968,90	3063,20
969,32	3061,95
969,75	3071,60
970,17	3088,62
970,60	3068,58
971,03	3065,78
971,45	3068,62
971,88	3062,50
972,30	3064,62
972,73	3067,95
973,15	3063,22
973,58	3064,18
974,00	3061,08
974,43	3061,92
974,85	3063,20
975,28	3067,85
975,70	3065,00
976,13	3068,35
976,55	3065,40
976,98	3063,78
977,40	3061,62
977,83	3063,15
978,25	3066,40
978,68	3060,10
979,10	3067,55
979,53	3066,35
979,95	3064,95
980,37	3067,20
980,80	3065,55
981,22	3070,75
981,65	3070,10
982,07	3065,40
982,50	3065,82
982,92	3070,12
983,35	3065,72
983,77	3065,12
984,20	3062,60
984,62	3064,58
985,04	3064,32
985,47	3069,90
985,89	3070,25
986,32	3062,62
986,74	3058,12
987,17	3063,95
987,59	3067,88
988,01	3062,62
988,44	3059,18
988,86	3068,48
989,29	3067,00
989,71	3067,95
990,13	3064,28
990,56	3066,80
990,98	3064,75
991,41	3063,58
991,83	3067,52
992,25	3065,40
992,68	3067,90
993,10	3074,45
993,53	3064,10
993,95	3061,50
994,37	3064,50
994,80	3063,05
995,22	3064,28
995,64	3071,02
996,07	3072,10
996,49	3065,85
996,91	3065,72
997,34	3059,00
997,76	3061,25
998,18	3057,98
998,61	3069,38
999,03	3069,85
999,45	3065,68
999,88	3066,52
1000,30	3061,65
1000,72	3071,98
1001,15	3065,75
1001,57	3065,78
1001,99	3074,42
1002,42	3062,05
1002,84	3066,12
1003,26	3068,30
1003,69	3065,28
1004,11	3066,68
1004,53	3065,45
1004,96	3067,48
1005,38	3061,40
1005,80	3065,90
1006,22	3066,50
1006,65	3073,25
1007,07	3063,32
1007,49	3062,10
1007,92	3069,42
1008,34	3063,88
1008,76	3062,28
1009,18	3061,10
1009,61	3066,30
1010,03	3064,80
1010,45	3084,35
1010,87	3071,25
1011,30	3070,28
1011,72	3068,85
1012,14	3066,75
1012,56	3067,95
1012,99	3066,20
1013,41	3068,58
1013,83	3068,12
1014,25	3067,22
1014,68	3068,52
1015,10	3061,82
1015,52	3070,62
1015,94	3060,62
1016,37	3071,42
1016,79	3064,02
1017,21	3065,12
1017,63	3060,45
1018,05	3067,00
1018,48	3064,32
1018,90	3065,42
1019,32	3065,90
1019,74	3057,40
1020,16	3080,00
1020,59	3073,22
1021,01	3068,65
1021,43	3065,02
1021,85	3065,45
1022,27	3067,92
1022,69	3064,88
1023,12	3066,52
1023,54	3066,15
1023,96	3084,90
1024,38	3072,78
1024,80	3069,25
1025,22	3069,18
1025,65	3067,60
1026,07	3067,02
1026,49	3068,65
1026,91	3064,52
1027,33	3063,38
1027,75	3078,92
1028,17	3071,78
1028,60	3066,20
1029,02	3065,52
1029,44	3066,98
1029,86	3064,80
1030,28	3076,50
1030,70	3067,08
1031,12	3065,70
1031,54	3070,88
1031,97	3072,50
1032,39	3063,08
1032,81	3068,80
1033,23	3070,50
1033,65	3066,52
1034,07	3070,22
1034,49	3060,85
1034,91	3062,20
1035,33	3068,35
1035,75	3070,92
1036,18	3064,10
1036,60	3076,38
1037,02	3063,52
1037,44	3062,22
1037,86	3066,25
1038,28	3060,78
1038,70	3069,68
1039,12	3071,30
1039,54	3069,88
1039,96	3073,38
1040,38	3074,28
1040,80	3063,58
1041,22	3063,28
1041,64	3069,30
1042,06	3063,25
1042,48	3073,48
1042,90	3072,60
1043,32	3066,78
1043,74	3071,08
1044,17	3064,32
1044,59	3070,12
1045,01	3062,22
1045,43	3064,72
1045,85	3064,42
1046,27	3061,62
1046,69	3069,52
1047,11	3069,48
1047,53	3064,02
1047,95	3068,40
1048,37	3071,58
1048,79	3061,20
1049,21	3070,80
1049,63	3068,90
1050,05	3072,75
1050,47	3065,88
1050,89	3064,48
1051,31	3068,55
1051,72	3068,68
1052,14	3071,88
1052,56	3071,05
1052,98	3066,58
1053,40	3071,68
1053,82	3058,08
1054,24	3066,50
1054,66	3059,35
1055,08	3066,18
1055,50	3062,62
1055,92	3066,30
1056,34	3069,85
1056,76	3075,30
1057,18	3072,20
1057,60	3070,05
1058,02	3066,85
1058,44	3088,45
1058,86	3062,32
1059,28	3068,20
1059,69	3072,35
1060,11	3067,10
1060,53	3066,70
1060,95	3064,32
1061,37	3071,20
1061,79	3067,78
1062,21	3065,08
1062,63	3070,70
1063,05	3077,08
1063,47	3066,62
1063,88	3066,88
1064,30	3065,22
1064,72	3073,52
1065,14	3072,15
1065,56	3066,58
1065,98	3063,80
1066,40	3060,25
1066,82	3070,52
1067,23	3067,05
1067,65	3068,18
1068,07	3068,82
1068,49	3064,92
1068,91	3074,45
1069,33	3068,72
1069,75	3063,35
1070,16	3060,92
1070,58	3073,10
1071,00	3072,45
1071,42	3069,52
1071,84	3065,68
1072,26	3069,85
1072,67	3062,18
1073,09	3062,32
1073,51	3061,28
1073,93	3069,72
1074,35	3061,25
1074,77	3062,10
1075,18	3066,05
1075,60	3064,35
1076,02	3066,68
1076,44	3065,15
1076,86	3062,00
1077,27	3064,62
1077,69	3070,12
1078,11	3064,30
1078,53	3070,30
1078,94	3073,32
1079,36	3057,70
1079,78	3066,65
1080,20	3066,70
1080,62	3067,50
1081,03	3067,60
1081,45	3065,12
1081,87	3063,88
1082,29	3067,90
1082,70	3066,62
1083,12	3068,38
1083,54	3063,45
1083,96	3064,70
1084,37	3070,65
1084,79	3065,90
1085,21	3065,05
1085,63	3073,48
1086,04	3062,55
1086,46	3063,72
1086,88	3070,08
1087,30	3059,40
1087,71	3068,30
1088,13	3324,48
1088,55	3067,52
1088,96	3061,18
1089,38	3065,55
1089,80	3065,60
1090,22	3072,08
1090,63	3066,50
1091,05	3062,08
1091,47	3067,68
1091,88	3066,30
1092,30	3062,25
1092,72	3064,92
1093,13	3064,25
1093,55	3066,55
1093,97	3062,00
1094,38	3064,25
1094,80	3067,75
1095,22	3065,40
1095,63	3063,90
1096,05	3067,02
1096,47	3069,30
1096,88	3062,85
1097,30	3067,10
1097,72	3063,30
1098,13	3068,28
1098,55	3068,62
1098,97	3072,38
1099,38	3066,22
1099,80	3064,78
1100,21	3064,05
1100,63	3062,75
1101,05	3063,45
1101,46	3066,35
1101,88	3063,30
1102,30	3063,22
1102,71	3064,22
1103,13	3064,98
1103,54	3068,58
1103,96	3064,38
1104,38	3074,68
1104,79	3056,28
1105,21	3066,45
1105,62	3064,58
1106,04	3061,52
1106,46	3063,60
1106,87	3055,50
1107,29	3058,88
1107,70	3069,68
1108,12	3059,58
1108,54	3067,20
1108,95	3066,20
1109,37	3068,92
1109,78	3057,12
1110,20	3063,38
1110,61	3058,48
1111,03	3058,48
1111,44	3058,48
1111,86	3058,48
1112,28	3058,48
1112,69	3058,48
1113,11	3058,48
1113,52	3058,48
1113,94	3058,48
1114,35	3058,48
1114,77	3058,48
1115,18	3058,48
1115,60	3058,48
1116,01	3058,48
1116,43	3058,48
1116,84	3058,48
1117,26	3058,48
1117,67	3058,48
1118,09	3058,48
1118,50	3058,48
1118,92	3058,48
>>>>>End Processed Spectral Data<<<<<
