SpectraSuite Data File
++++++++++++++++++++++++++++++++++++
Date: Tue Jul 12 15:16:14 EEST 2011
User: OO Maya
Dark Spectrum Present: No
Reference Spectrum Present: No
Number of Sampled Component Spectra: 1
Spectrometers: MAYP11278
Integration Time (usec): 300000 (MAYP11278)
Spectra Averaged: 40 (MAYP11278)
Boxcar Smoothing: 0 (MAYP11278)
Correct for Electrical Dark: No (MAYP11278)
Strobe/Lamp Enabled: No (MAYP11278)
Correct for Detector Non-linearity: No (MAYP11278)
Correct for Stray Light: No (MAYP11278)
Number of Pixels in Processed Spectrum: 2068
>>>>>Begin Processed Spectral Data<<<<<
200,00	3407,02
200,47	2982,70
200,95	2982,88
201,42	2981,78
201,89	3422,62
202,37	3443,18
202,84	3424,82
203,31	3428,60
203,79	3459,75
204,26	3424,45
204,73	3416,12
205,20	3401,95
205,68	3428,75
206,15	3417,80
206,62	3444,15
207,10	3420,95
207,57	3454,38
208,04	3425,02
208,51	3430,12
208,99	3513,82
209,46	3434,38
209,93	3408,92
210,41	3422,88
210,88	3412,00
211,35	3442,15
211,82	3456,48
212,30	3419,28
212,77	3431,85
213,24	3460,45
213,71	3456,18
214,19	3449,85
214,66	3410,92
215,13	3449,08
215,60	3409,58
216,08	3457,65
216,55	3473,52
217,02	3429,48
217,49	3419,32
217,96	3479,40
218,44	3419,70
218,91	3446,08
219,38	3518,75
219,85	3439,05
220,33	3454,68
220,80	3431,35
221,27	3465,02
221,74	3454,32
222,21	3435,68
222,69	3435,22
223,16	3453,48
223,63	3444,58
224,10	3424,80
224,57	3494,12
225,04	3455,30
225,52	3429,55
225,99	3498,45
226,46	3450,98
226,93	3481,78
227,40	3455,50
227,87	3461,10
228,35	3462,22
228,82	3454,90
229,29	3429,08
229,76	3435,28
230,23	3474,15
230,70	3402,48
231,18	3424,60
231,65	3429,78
232,12	3448,38
232,59	3481,70
233,06	3431,68
233,53	3469,95
234,00	3425,85
234,48	3470,45
234,95	3434,10
235,42	3465,72
235,89	3450,32
236,36	3430,92
236,83	3419,20
237,30	3443,88
237,77	3432,58
238,24	3442,02
238,72	3469,32
239,19	3440,38
239,66	3461,38
240,13	3461,42
240,60	3467,05
241,07	3442,58
241,54	3440,38
242,01	3432,08
242,48	3470,38
242,95	3486,98
243,42	3451,52
243,90	3451,72
244,37	3419,85
244,84	3451,98
245,31	3450,48
245,78	3553,38
246,25	3455,92
246,72	3427,38
247,19	3429,80
247,66	3414,10
248,13	3474,82
248,60	3510,98
249,07	3434,10
249,54	3456,05
250,01	3451,22
250,48	3453,95
250,95	3445,78
251,42	3413,68
251,89	3466,15
252,36	3482,05
252,83	3451,72
253,30	3442,12
253,77	3474,18
254,24	3480,35
254,71	3417,72
255,18	3425,42
255,65	3474,80
256,12	3496,72
256,59	3447,45
257,06	3484,68
257,53	3476,42
258,00	3427,15
258,47	3444,25
258,94	3450,25
259,41	3454,95
259,88	3461,50
260,35	3408,20
260,82	3449,25
261,29	3471,68
261,76	3455,95
262,23	3492,05
262,70	3451,50
263,17	3509,02
263,64	3486,85
264,11	3432,30
264,58	3481,25
265,05	3457,80
265,52	3442,75
265,99	3459,60
266,46	3464,75
266,93	3471,02
267,40	3437,55
267,87	3460,40
268,34	3461,85
268,81	3476,68
269,28	3546,42
269,74	3458,50
270,21	3434,55
270,68	3461,88
271,15	3474,12
271,62	3502,38
272,09	3443,00
272,56	3430,45
273,03	3496,68
273,50	3429,72
273,97	3460,32
274,44	3458,18
274,90	3418,22
275,37	3476,88
275,84	3484,75
276,31	3442,90
276,78	3454,55
277,25	3462,05
277,72	3478,72
278,19	3442,30
278,66	3447,92
279,12	3457,55
279,59	3461,90
280,06	3405,95
280,53	3428,82
281,00	3440,75
281,47	3471,98
281,94	3487,78
282,40	3443,18
282,87	3458,52
283,34	3416,62
283,81	3423,90
284,28	3400,42
284,75	3453,38
285,21	3563,30
285,68	3479,08
286,15	3477,22
286,62	3434,12
287,09	3439,15
287,56	3470,72
288,02	3471,88
288,49	3424,60
288,96	3443,25
289,43	3420,82
289,90	3579,95
290,36	3443,05
290,83	3432,05
291,30	3572,62
291,77	3481,45
292,24	3542,50
292,70	3448,48
293,17	3483,08
293,64	3447,48
294,11	3443,95
294,58	3468,40
295,04	3436,78
295,51	3425,88
295,98	3476,02
296,45	3451,05
296,91	3462,40
297,38	3464,48
297,85	3412,40
298,32	3464,22
298,79	3502,40
299,25	3442,32
299,72	3475,75
300,19	3404,48
300,66	3491,72
301,12	3428,50
301,59	3459,30
302,06	3441,62
302,52	3480,25
302,99	3524,00
303,46	3434,95
303,93	3490,88
304,39	3438,08
304,86	3467,82
305,33	3467,05
305,80	3429,82
306,26	3453,85
306,73	3461,45
307,20	3510,20
307,66	3503,00
308,13	3472,70
308,60	3465,95
309,07	3473,70
309,53	3438,62
310,00	3510,55
310,47	3446,82
310,93	3466,18
311,40	3442,20
311,87	3484,30
312,33	3481,35
312,80	3483,28
313,27	3428,22
313,73	3476,32
314,20	3481,95
314,67	3433,12
315,13	3440,78
315,60	3430,68
316,07	3459,60
316,53	3465,78
317,00	3459,92
317,47	3471,15
317,93	3435,45
318,40	3441,88
318,87	3458,62
319,33	3445,50
319,80	3480,80
320,26	3483,65
320,73	3464,68
321,20	3467,10
321,66	3467,80
322,13	3444,10
322,60	3480,48
323,06	3457,20
323,53	3521,30
323,99	3437,70
324,46	3447,55
324,93	3462,25
325,39	3438,22
325,86	3436,40
326,32	3479,35
326,79	3465,22
327,26	3467,12
327,72	3472,58
328,19	3460,90
328,65	3547,65
329,12	3456,00
329,59	3453,88
330,05	3422,55
330,52	3471,70
330,98	3512,60
331,45	3477,48
331,91	3454,62
332,38	3411,90
332,85	3425,35
333,31	3511,00
333,78	3448,72
334,24	3466,80
334,71	3423,58
335,17	3459,25
335,64	3450,28
336,10	3445,28
336,57	3445,48
337,03	3444,75
337,50	3471,92
337,96	3468,10
338,43	3466,80
338,90	3468,15
339,36	3444,12
339,83	3455,52
340,29	3447,55
340,76	3427,72
341,22	3472,52
341,69	3467,18
342,15	3513,18
342,62	3433,72
343,08	3522,40
343,55	3471,90
344,01	3464,48
344,48	3492,10
344,94	3460,48
345,41	3466,80
345,87	3570,75
346,34	3424,92
346,80	3451,92
347,27	3445,00
347,73	3474,10
348,19	3441,10
348,66	3448,90
349,12	3507,62
349,59	3483,38
350,05	3424,55
350,52	3435,18
350,98	3434,05
351,45	3469,98
351,91	3484,38
352,38	3440,32
352,84	3459,68
353,30	3474,90
353,77	3461,25
354,23	3445,08
354,70	3457,30
355,16	3430,02
355,63	3457,00
356,09	3471,02
356,55	3440,85
357,02	3431,60
357,48	3503,60
357,95	3437,18
358,41	3488,90
358,87	3463,30
359,34	3417,08
359,80	3463,38
360,27	3474,38
360,73	3457,72
361,19	3439,28
361,66	3468,30
362,12	3510,62
362,59	3470,40
363,05	3450,78
363,51	3461,75
363,98	3470,40
364,44	3466,12
364,91	3471,72
365,37	3463,30
365,83	3513,40
366,30	3439,72
366,76	3506,95
367,22	3426,78
367,69	3534,92
368,15	3480,22
368,61	3419,55
369,08	3428,02
369,54	3436,35
370,00	3448,15
370,47	3480,50
370,93	3499,25
371,39	3443,78
371,86	3454,62
372,32	3458,82
372,78	3447,18
373,25	3466,65
373,71	3529,58
374,17	3471,45
374,64	3433,02
375,10	3471,35
375,56	3438,92
376,03	3420,18
376,49	3465,05
376,95	3452,15
377,42	3457,90
377,88	3419,65
378,34	3428,42
378,80	3480,32
379,27	3421,85
379,73	3481,35
380,19	3460,08
380,66	3442,68
381,12	3437,62
381,58	3473,55
382,04	3436,35
382,51	3417,35
382,97	3455,92
383,43	3458,55
383,89	3420,20
384,36	3426,95
384,82	3464,48
385,28	3408,62
385,74	3491,82
386,21	3448,38
386,67	3429,05
387,13	3421,10
387,59	3462,40
388,06	3457,50
388,52	3449,58
388,98	3450,28
389,44	3454,18
389,91	3474,08
390,37	3497,12
390,83	3455,62
391,29	3495,58
391,75	3492,25
392,22	3414,05
392,68	3461,42
393,14	3445,00
393,60	3487,25
394,06	3459,12
394,53	3619,65
394,99	3458,25
395,45	3444,50
395,91	3448,48
396,37	3513,95
396,84	3427,32
397,30	3417,35
397,76	3474,50
398,22	3465,12
398,68	3493,60
399,14	3429,30
399,61	3476,78
400,07	3458,48
400,53	3473,08
400,99	3469,35
401,45	3456,05
401,91	3466,45
402,38	3441,95
402,84	3442,55
403,30	3536,88
403,76	3453,85
404,22	3488,35
404,68	3436,68
405,14	3471,25
405,61	3609,90
406,07	3421,78
406,53	3476,68
406,99	3482,35
407,45	3430,10
407,91	3451,72
408,37	3437,48
408,83	3419,38
409,29	3490,40
409,76	3417,38
410,22	3453,38
410,68	3437,55
411,14	3466,75
411,60	3461,72
412,06	3454,35
412,52	3431,18
412,98	3497,48
413,44	3451,45
413,90	3493,42
414,36	3514,12
414,83	3492,82
415,29	3428,72
415,75	3481,70
416,21	3464,00
416,67	3518,78
417,13	3454,40
417,59	3465,45
418,05	3472,38
418,51	3424,35
418,97	3489,72
419,43	3426,60
419,89	3494,28
420,35	3429,22
420,81	3492,60
421,27	3430,40
421,73	3412,40
422,19	3477,18
422,65	3439,92
423,11	3464,45
423,57	3466,62
424,03	3501,40
424,49	3447,20
424,96	3512,35
425,42	3464,52
425,88	3462,08
426,34	3517,00
426,80	3466,72
427,26	3454,80
427,72	3466,48
428,18	3455,68
428,64	3478,92
429,10	3436,02
429,56	3473,42
430,02	3423,72
430,47	3461,95
430,93	3439,80
431,39	3463,62
431,85	3438,78
432,31	3451,30
432,77	3465,52
433,23	3486,20
433,69	3449,60
434,15	3483,62
434,61	3450,22
435,07	3495,92
435,53	3444,65
435,99	3498,60
436,45	3481,18
436,91	3486,08
437,37	3427,32
437,83	3482,62
438,29	3466,58
438,75	3456,85
439,21	3462,70
439,67	3562,35
440,12	3423,95
440,58	3446,68
441,04	3501,75
441,50	3492,00
441,96	3450,68
442,42	3443,18
442,88	3464,08
443,34	3443,20
443,80	3479,22
444,26	3424,25
444,72	3476,58
445,17	3457,28
445,63	3419,15
446,09	3479,25
446,55	3470,65
447,01	3461,78
447,47	3439,75
447,93	3449,85
448,39	3582,70
448,85	3465,35
449,30	3478,52
449,76	3491,05
450,22	3434,78
450,68	3447,02
451,14	3541,50
451,60	3421,45
452,06	3460,28
452,51	3463,40
452,97	3427,22
453,43	3509,45
453,89	3470,08
454,35	3457,65
454,81	3455,28
455,26	3463,38
455,72	3448,78
456,18	3464,50
456,64	3441,62
457,10	3435,82
457,56	3473,30
458,01	3467,58
458,47	3451,48
458,93	3434,62
459,39	3434,90
459,85	3441,32
460,30	3459,90
460,76	3472,82
461,22	3428,60
461,68	3484,42
462,14	3457,68
462,59	3447,08
463,05	3460,40
463,51	3473,35
463,97	3446,95
464,43	3461,40
464,88	3484,65
465,34	3440,70
465,80	3505,48
466,26	3445,00
466,71	3450,95
467,17	3420,25
467,63	3457,12
468,09	3455,85
468,54	3454,45
469,00	3444,35
469,46	3427,92
469,92	3499,00
470,37	3482,48
470,83	3430,42
471,29	3422,12
471,75	3493,65
472,20	3444,48
472,66	3458,50
473,12	3464,50
473,58	3424,75
474,03	3445,58
474,49	3479,15
474,95	3461,00
475,40	3467,92
475,86	3473,85
476,32	3448,02
476,78	3457,65
477,23	3466,30
477,69	3450,75
478,15	3432,72
478,60	3467,45
479,06	3462,22
479,52	3441,30
479,97	3446,60
480,43	3433,12
480,89	3436,85
481,34	3450,10
481,80	3497,82
482,26	3453,90
482,71	3438,38
483,17	3450,95
483,63	3425,48
484,08	3472,35
484,54	3454,12
485,00	3467,85
485,45	3448,85
485,91	3461,40
486,37	3499,88
486,82	3466,62
487,28	3494,10
487,74	3436,42
488,19	3508,58
488,65	3476,68
489,10	3452,22
489,56	3442,05
490,02	3451,72
490,47	3463,68
490,93	3428,82
491,39	3455,85
491,84	3415,18
492,30	3453,00
492,75	3500,85
493,21	3467,00
493,67	3454,88
494,12	3410,82
494,58	3448,58
495,03	3416,78
495,49	3466,80
495,95	3425,58
496,40	3425,38
496,86	3445,30
497,31	3464,80
497,77	3459,38
498,23	3484,20
498,68	3429,15
499,14	3458,62
499,59	3420,78
500,05	3435,20
500,50	3410,92
500,96	3485,62
501,41	3469,32
501,87	3454,60
502,33	3429,38
502,78	3450,82
503,24	3441,02
503,69	3429,92
504,15	3465,25
504,60	3437,45
505,06	3448,40
505,51	3513,38
505,97	3490,32
506,42	3439,78
506,88	3459,12
507,33	3438,42
507,79	3533,60
508,24	3456,78
508,70	3437,50
509,15	3453,25
509,61	3444,80
510,06	3475,48
510,52	3454,78
510,97	3454,28
511,43	3449,30
511,88	3466,62
512,34	3443,28
512,79	3466,40
513,25	3463,38
513,70	3435,12
514,16	3452,78
514,61	3481,28
515,07	3454,05
515,52	3473,18
515,98	3466,65
516,43	3438,65
516,89	3429,28
517,34	3414,02
517,80	3440,35
518,25	3453,45
518,70	3433,30
519,16	3491,10
519,61	3497,58
520,07	3430,82
520,52	3409,08
520,98	3437,62
521,43	3466,05
521,89	3404,22
522,34	3489,30
522,79	3501,32
523,25	3414,40
523,70	3459,52
524,16	3486,68
524,61	3483,35
525,06	3542,35
525,52	3469,45
525,97	3460,55
526,43	3578,22
526,88	3443,82
527,33	3436,22
527,79	3425,30
528,24	3430,45
528,70	3466,08
529,15	3471,68
529,60	3474,65
530,06	3456,72
530,51	3421,32
530,97	3511,05
531,42	3480,70
531,87	3451,60
532,33	3504,65
532,78	3470,18
533,23	3482,38
533,69	3487,28
534,14	3471,72
534,59	3458,68
535,05	3453,00
535,50	3447,95
535,96	3482,92
536,41	3468,02
536,86	3451,45
537,32	3425,28
537,77	3474,35
538,22	3479,55
538,68	3427,38
539,13	3490,38
539,58	3458,05
540,03	3454,28
540,49	3458,90
540,94	3475,95
541,39	3450,02
541,85	3431,65
542,30	3454,42
542,75	3447,02
543,21	3460,02
543,66	3443,82
544,11	3475,32
544,57	3429,30
545,02	3475,35
545,47	3449,72
545,92	3455,52
546,38	3507,92
546,83	3472,42
547,28	3636,52
547,73	3421,85
548,19	3509,82
548,64	3458,12
549,09	3425,85
549,55	3471,32
550,00	3472,60
550,45	3440,32
550,90	3549,88
551,36	3426,68
551,81	3524,50
552,26	3486,30
552,71	3457,82
553,17	3448,20
553,62	3485,55
554,07	3465,48
554,52	3475,75
554,97	3481,32
555,43	3468,68
555,88	3463,80
556,33	3449,08
556,78	3444,40
557,24	3530,78
557,69	3454,48
558,14	3424,75
558,59	3474,82
559,04	3467,02
559,50	3529,62
559,95	3470,48
560,40	3440,35
560,85	3480,68
561,30	3451,28
561,76	3435,45
562,21	3470,72
562,66	3464,00
563,11	3524,22
563,56	3466,18
564,01	3513,18
564,47	3427,28
564,92	3470,35
565,37	3536,08
565,82	3457,12
566,27	3461,15
566,72	3444,92
567,18	3452,65
567,63	3449,28
568,08	3477,40
568,53	3462,05
568,98	3468,95
569,43	3460,42
569,88	3456,72
570,34	3472,12
570,79	3507,40
571,24	3458,55
571,69	3483,30
572,14	3467,40
572,59	3470,50
573,04	3481,52
573,49	3522,30
573,94	3475,78
574,40	3464,85
574,85	3492,42
575,30	3522,22
575,75	3473,70
576,20	3487,48
576,65	3523,15
577,10	3495,58
577,55	3496,00
578,00	3522,28
578,45	3528,02
578,91	3505,95
579,36	3522,42
579,81	3533,80
580,26	3505,15
580,71	3509,05
581,16	3538,02
581,61	3569,55
582,06	3562,15
582,51	3513,25
582,96	3561,42
583,41	3505,10
583,86	3597,88
584,31	3558,35
584,76	3567,58
585,21	3558,08
585,66	3632,92
586,11	3611,88
586,56	3596,90
587,01	3634,08
587,46	3644,18
587,92	3641,88
588,37	3656,32
588,82	3673,15
589,27	3679,00
589,72	3659,20
590,17	3715,48
590,62	3736,00
591,07	3731,32
591,52	3773,00
591,97	3759,62
592,42	3879,15
592,87	3808,40
593,32	3822,48
593,77	3851,05
594,22	3877,92
594,67	3940,85
595,12	3911,60
595,56	3978,58
596,01	3982,88
596,46	4002,78
596,91	4066,00
597,36	4110,95
597,81	4114,00
598,26	4131,22
598,71	4241,72
599,16	4226,35
599,61	4297,45
600,06	4333,78
600,51	4406,70
600,96	4438,88
601,41	4494,38
601,86	4594,58
602,31	4598,68
602,76	4654,42
603,21	4788,72
603,66	4836,00
604,11	4932,68
604,55	4975,58
605,00	5014,98
605,45	5131,08
605,90	5272,42
606,35	5298,45
606,80	5429,40
607,25	5569,68
607,70	5653,28
608,15	5787,10
608,60	5846,60
609,04	6122,68
609,49	6130,60
609,94	6293,85
610,39	6386,65
610,84	6555,45
611,29	6784,25
611,74	6910,08
612,19	7127,28
612,64	7302,25
613,08	7455,05
613,53	7706,28
613,98	7926,92
614,43	8166,35
614,88	8421,78
615,33	8660,85
615,78	9010,88
616,22	9225,12
616,67	9503,65
617,12	9802,60
617,57	10137,82
618,02	10446,98
618,47	10895,10
618,91	11206,05
619,36	11569,42
619,81	12060,55
620,26	12332,32
620,71	12756,80
621,16	13193,42
621,60	13637,75
622,05	14134,95
622,50	14604,40
622,95	15083,18
623,40	15602,02
623,84	16136,92
624,29	16732,75
624,74	17257,38
625,19	17888,35
625,64	18515,42
626,08	19231,20
626,53	19915,65
626,98	20695,95
627,43	21499,98
627,87	22282,40
628,32	23222,08
628,77	24148,15
629,22	25159,60
629,66	26186,20
630,11	27256,60
630,56	28473,98
631,01	29598,42
631,46	30817,08
631,90	32083,98
632,35	33313,78
632,80	34604,65
633,25	35932,85
633,69	37205,72
634,14	38498,05
634,59	39762,68
635,03	40985,40
635,48	42321,35
635,93	43635,30
636,38	44949,48
636,82	46292,20
637,27	47581,10
637,72	48866,55
638,16	50090,80
638,61	51273,20
639,06	52184,82
639,51	52945,95
639,95	53348,05
640,40	53389,75
640,85	53073,72
641,29	52331,65
641,74	51167,25
642,19	49642,68
642,63	47850,28
643,08	45817,50
643,53	43573,60
643,97	41280,58
644,42	38946,32
644,87	36618,58
645,31	34378,25
645,76	32208,25
646,21	30288,40
646,65	28488,20
647,10	26858,18
647,55	25223,05
647,99	23833,52
648,44	22497,85
648,89	21321,60
649,33	20251,90
649,78	19287,68
650,23	18318,40
650,67	17440,98
651,12	16630,15
651,56	15811,80
652,01	15102,72
652,46	14397,98
652,90	13771,50
653,35	13151,72
653,80	12527,35
654,24	11939,92
654,69	11342,25
655,13	10891,10
655,58	10385,62
656,03	10043,98
656,47	9433,68
656,92	9031,68
657,36	8650,58
657,81	8272,68
658,26	7900,08
658,70	7594,82
659,15	7292,30
659,59	7002,25
660,04	6776,85
660,48	6541,88
660,93	6288,58
661,38	6069,62
661,82	5934,10
662,27	5720,62
662,71	5578,48
663,16	5456,52
663,60	5332,48
664,05	5170,45
664,49	5078,55
664,94	4942,32
665,38	5015,60
665,83	4765,92
666,28	4732,98
666,72	4609,88
667,17	4524,38
667,61	4481,75
668,06	4401,45
668,50	4320,80
668,95	4320,92
669,39	4242,12
669,84	4188,22
670,28	4159,28
670,73	4087,70
671,17	4079,90
671,62	4016,72
672,06	4009,82
672,51	3972,08
672,95	4022,90
673,40	3948,02
673,84	3852,95
674,29	3854,45
674,73	3797,18
675,18	3873,82
675,62	3728,52
676,07	3731,35
676,51	3773,90
676,95	3707,10
677,40	3746,92
677,84	3761,85
678,29	3672,12
678,73	3654,32
679,18	3683,10
679,62	3749,92
680,07	3632,95
680,51	3628,22
680,96	3558,65
681,40	3562,95
681,84	3578,68
682,29	3569,40
682,73	3565,28
683,18	3556,02
683,62	3651,62
684,07	3526,60
684,51	3534,48
684,95	3547,68
685,40	3522,72
685,84	3530,25
686,29	3525,38
686,73	3471,42
687,17	3465,65
687,62	3506,75
688,06	3513,05
688,51	3535,05
688,95	3520,45
689,39	3514,40
689,84	3546,48
690,28	3509,22
690,73	3502,38
691,17	3509,22
691,61	3484,02
692,06	3465,32
692,50	3484,38
692,94	3468,02
693,39	3480,02
693,83	3465,48
694,27	3576,22
694,72	3498,28
695,16	3438,85
695,60	3468,88
696,05	3466,02
696,49	3439,02
696,94	3469,62
697,38	3439,65
697,82	3466,40
698,27	3463,92
698,71	3490,48
699,15	3481,05
699,59	3466,70
700,04	3466,20
700,48	3618,38
700,92	3470,00
701,37	3465,78
701,81	3526,98
702,25	3461,28
702,70	3446,92
703,14	3472,32
703,58	3439,98
704,03	3488,02
704,47	3492,12
704,91	3440,88
705,35	3448,58
705,80	3487,25
706,24	3481,52
706,68	3596,58
707,13	3422,48
707,57	3505,42
708,01	3436,88
708,45	3445,05
708,90	3470,18
709,34	3457,15
709,78	3444,25
710,22	3500,70
710,67	3488,65
711,11	3490,25
711,55	3422,60
711,99	3477,75
712,44	3453,28
712,88	3452,82
713,32	3467,08
713,76	3483,05
714,21	3461,62
714,65	3444,18
715,09	3457,75
715,53	3452,98
715,97	3435,52
716,42	3473,95
716,86	3456,92
717,30	3458,55
717,74	3429,12
718,18	3519,48
718,63	3456,00
719,07	3459,32
719,51	3510,68
719,95	3486,28
720,39	3449,38
720,84	3459,70
721,28	3442,72
721,72	3443,48
722,16	3424,12
722,60	3414,15
723,04	3471,02
723,49	3512,30
723,93	3422,65
724,37	3426,18
724,81	3451,35
725,25	3448,52
725,69	3435,18
726,14	3459,35
726,58	3436,72
727,02	3466,80
727,46	3452,05
727,90	3414,88
728,34	3412,38
728,78	3460,72
729,23	3411,72
729,67	3469,35
730,11	3415,78
730,55	3448,10
730,99	3448,62
731,43	3452,80
731,87	3517,15
732,31	3432,45
732,76	3495,38
733,20	3471,80
733,64	3444,18
734,08	3492,98
734,52	3435,25
734,96	3481,08
735,40	3421,45
735,84	3453,45
736,28	3468,65
736,72	3455,30
737,16	3456,90
737,61	3427,78
738,05	3475,68
738,49	3463,02
738,93	3434,28
739,37	3475,50
739,81	3464,65
740,25	3452,38
740,69	3545,68
741,13	3426,90
741,57	3462,40
742,01	3479,75
742,45	3472,38
742,89	3449,68
743,33	3444,80
743,77	3455,88
744,21	3414,08
744,65	3489,45
745,09	3461,55
745,53	3423,00
745,98	3472,80
746,42	3468,20
746,86	3450,85
747,30	3450,90
747,74	3425,80
748,18	3426,20
748,62	3448,28
749,06	3489,60
749,50	3483,42
749,94	3457,78
750,38	3480,90
750,82	3503,58
751,26	3402,92
751,70	3422,98
752,14	3411,70
752,58	3466,92
753,02	3443,72
753,45	3435,48
753,89	3464,10
754,33	3546,45
754,77	3451,72
755,21	3445,25
755,65	3416,28
756,09	3436,58
756,53	3432,65
756,97	3444,82
757,41	3510,58
757,85	3433,08
758,29	3440,85
758,73	3414,72
759,17	3435,42
759,61	3420,00
760,05	3442,40
760,49	3453,35
760,93	3494,02
761,37	3437,05
761,80	3491,82
762,24	3454,12
762,68	3444,38
763,12	3447,88
763,56	3445,35
764,00	3414,82
764,44	3436,60
764,88	3460,95
765,32	3445,90
765,76	3465,68
766,20	3490,50
766,63	3443,08
767,07	3413,12
767,51	3436,98
767,95	3472,60
768,39	3446,92
768,83	3416,65
769,27	3435,00
769,71	3461,42
770,14	3422,30
770,58	3417,78
771,02	3431,08
771,46	3446,68
771,90	3448,10
772,34	3455,90
772,78	3475,90
773,21	3447,02
773,65	3514,20
774,09	3421,20
774,53	3447,18
774,97	3425,20
775,41	3417,60
775,84	3462,22
776,28	3450,00
776,72	3458,68
777,16	3412,58
777,60	3439,82
778,04	3438,15
778,47	3397,75
778,91	3442,42
779,35	3421,98
779,79	3459,08
780,23	3452,62
780,66	3417,85
781,10	3437,00
781,54	3440,42
781,98	3468,18
782,42	3465,48
782,85	3437,75
783,29	3454,85
783,73	3546,60
784,17	3492,55
784,61	3447,00
785,04	3483,60
785,48	3460,80
785,92	3424,80
786,36	3455,60
786,79	3417,32
787,23	3441,45
787,67	3474,28
788,11	3479,40
788,54	3448,40
788,98	3436,98
789,42	3442,00
789,86	3429,80
790,29	3471,75
790,73	3471,58
791,17	3486,90
791,60	3424,45
792,04	3429,38
792,48	3455,60
792,92	3425,25
793,35	3439,28
793,79	3428,18
794,23	3444,58
794,67	3423,60
795,10	3432,62
795,54	3473,85
795,98	3436,65
796,41	3451,38
796,85	3431,92
797,29	3592,65
797,72	3485,18
798,16	3444,40
798,60	3459,32
799,03	3452,45
799,47	3421,28
799,91	3459,18
800,34	3446,40
800,78	3449,15
801,22	3427,30
801,65	3417,22
802,09	3444,48
802,53	3486,85
802,96	3454,98
803,40	3420,48
803,84	3502,95
804,27	3459,50
804,71	3429,75
805,15	3460,08
805,58	3452,10
806,02	3428,40
806,46	3483,42
806,89	3507,12
807,33	3471,85
807,76	3456,52
808,20	3447,88
808,64	3435,72
809,07	3505,82
809,51	3522,20
809,95	3508,90
810,38	3475,48
810,82	3522,55
811,25	3439,70
811,69	3445,88
812,13	3419,72
812,56	3467,55
813,00	3450,50
813,43	3425,02
813,87	3419,22
814,30	3464,98
814,74	3493,95
815,18	3571,38
815,61	3442,72
816,05	3426,28
816,48	3470,98
816,92	3516,28
817,35	3474,55
817,79	3453,60
818,23	3475,80
818,66	3467,08
819,10	3456,58
819,53	3431,72
819,97	3432,05
820,40	3429,58
820,84	3474,25
821,27	3457,32
821,71	3481,52
822,14	3440,62
822,58	3466,92
823,01	3489,02
823,45	3442,02
823,88	3459,42
824,32	3439,42
824,75	3451,58
825,19	3425,65
825,63	3498,52
826,06	3419,12
826,50	3449,10
826,93	3451,12
827,37	3425,75
827,80	3452,55
828,23	3446,50
828,67	3457,82
829,10	3459,10
829,54	3425,08
829,97	3437,52
830,41	3398,92
830,84	3446,12
831,28	3465,82
831,71	3486,20
832,15	3429,82
832,58	3470,95
833,02	3459,72
833,45	3432,48
833,89	3504,90
834,32	3433,15
834,75	3527,15
835,19	3479,60
835,62	3472,15
836,06	3414,22
836,49	3441,92
836,93	3438,68
837,36	3475,38
837,79	3468,62
838,23	3442,48
838,66	3432,28
839,10	3480,52
839,53	3441,25
839,97	3457,12
840,40	3437,75
840,83	3481,52
841,27	3430,62
841,70	3436,30
842,14	3463,22
842,57	3447,98
843,00	3499,55
843,44	3531,20
843,87	3454,90
844,31	3489,22
844,74	3401,90
845,17	3421,92
845,61	3417,40
846,04	3436,15
846,47	3469,15
846,91	3451,65
847,34	3466,48
847,77	3449,15
848,21	3427,22
848,64	3464,32
849,08	3443,85
849,51	3475,40
849,94	3424,75
850,38	3424,08
850,81	3446,35
851,24	3426,82
851,68	3437,12
852,11	3431,48
852,54	3463,48
852,98	3483,85
853,41	3466,78
853,84	3440,60
854,28	3487,52
854,71	3420,48
855,14	3461,48
855,57	3484,72
856,01	3432,48
856,44	3433,22
856,87	3467,52
857,31	3417,25
857,74	3471,12
858,17	3418,75
858,61	3425,68
859,04	3482,88
859,47	3497,30
859,90	3442,25
860,34	3466,30
860,77	3443,60
861,20	3416,28
861,63	3484,30
862,07	3399,25
862,50	3425,50
862,93	3440,82
863,37	3441,88
863,80	3450,25
864,23	3464,38
864,66	3425,00
865,10	3442,05
865,53	3465,25
865,96	3426,18
866,39	3440,28
866,82	3467,80
867,26	3422,50
867,69	3448,00
868,12	3436,85
868,55	3411,40
868,99	3440,50
869,42	3400,68
869,85	3468,72
870,28	3416,20
870,71	3452,18
871,15	3446,52
871,58	3427,42
872,01	3461,80
872,44	3449,28
872,87	3497,28
873,31	3533,18
873,74	3419,25
874,17	3441,80
874,60	3444,85
875,03	3429,22
875,47	3450,05
875,90	3462,28
876,33	3435,98
876,76	3480,15
877,19	3462,48
877,62	3435,40
878,06	3425,30
878,49	3485,02
878,92	3398,08
879,35	3457,80
879,78	3440,10
880,21	3448,42
880,64	3443,70
881,08	3438,10
881,51	3454,82
881,94	3440,72
882,37	3502,38
882,80	3421,62
883,23	3418,75
883,66	3436,75
884,09	3442,90
884,53	3472,05
884,96	3446,40
885,39	3437,80
885,82	3438,02
886,25	3434,90
886,68	3415,70
887,11	3462,60
887,54	3439,58
887,97	3460,90
888,40	3468,50
888,84	3435,70
889,27	3422,92
889,70	3501,02
890,13	3417,05
890,56	3420,62
890,99	3443,22
891,42	3426,85
891,85	3560,62
892,28	3408,30
892,71	3468,78
893,14	3426,00
893,57	3459,35
894,00	3462,30
894,43	3407,88
894,86	3427,95
895,29	3437,70
895,73	3412,92
896,16	3429,18
896,59	3457,32
897,02	3432,38
897,45	3467,92
897,88	3436,75
898,31	3417,48
898,74	3449,88
899,17	3465,08
899,60	3425,18
900,03	3416,55
900,46	3422,60
900,89	3453,02
901,32	3480,62
901,75	3426,48
902,18	3422,68
902,61	3422,95
903,04	3464,38
903,47	3461,72
903,90	3432,75
904,33	3508,82
904,76	3512,52
905,19	3433,68
905,62	3434,62
906,05	3498,90
906,48	3419,42
906,91	3455,88
907,34	3427,28
907,76	3440,12
908,19	3408,68
908,62	3481,12
909,05	3444,35
909,48	3472,70
909,91	3453,02
910,34	3435,35
910,77	3464,35
911,20	3493,18
911,63	3434,22
912,06	3408,38
912,49	3451,92
912,92	3451,40
913,35	3433,52
913,78	3425,02
914,21	3440,25
914,63	3446,22
915,06	3428,85
915,49	3461,75
915,92	3450,80
916,35	3437,38
916,78	3407,58
917,21	3416,50
917,64	3428,70
918,07	3424,38
918,50	3466,32
918,92	3426,72
919,35	3484,70
919,78	3430,95
920,21	3466,85
920,64	3421,68
921,07	3441,50
921,50	3436,55
921,93	3463,48
922,35	3469,35
922,78	3442,12
923,21	3496,95
923,64	3458,65
924,07	3430,10
924,50	3413,80
924,92	3408,68
925,35	3446,80
925,78	3497,20
926,21	3463,90
926,64	3404,52
927,07	3463,42
927,49	3417,75
927,92	3463,55
928,35	3519,08
928,78	3430,80
929,21	3457,30
929,64	3404,88
930,06	3523,02
930,49	3440,98
930,92	3408,15
931,35	3473,15
931,78	3432,00
932,20	3455,40
932,63	3473,70
933,06	3423,68
933,49	3460,45
933,92	3397,75
934,34	3501,48
934,77	3480,65
935,20	3534,02
935,63	3437,55
936,05	3478,12
936,48	3472,70
936,91	3463,82
937,34	3457,00
937,76	3408,60
938,19	3433,20
938,62	3426,65
939,05	3451,35
939,47	3418,90
939,90	3460,60
940,33	3424,12
940,76	3432,65
941,18	3459,68
941,61	3418,85
942,04	3446,28
942,47	3469,88
942,89	3512,72
943,32	3427,35
943,75	3474,65
944,17	3425,20
944,60	3434,32
945,03	3466,10
945,46	3410,52
945,88	3405,30
946,31	3464,62
946,74	3432,40
947,16	3454,00
947,59	3441,58
948,02	3450,08
948,44	3454,72
948,87	3482,95
949,30	3432,58
949,72	3443,20
950,15	3464,80
950,58	3404,62
951,00	3415,10
951,43	3417,58
951,86	3531,30
952,28	3487,38
952,71	3431,40
953,14	3431,05
953,56	3456,50
953,99	3407,38
954,42	3468,50
954,84	3433,72
955,27	3506,28
955,70	3409,05
956,12	3416,52
956,55	3432,10
956,98	3427,85
957,40	3429,62
957,83	3460,90
958,25	3414,92
958,68	3464,35
959,11	3546,32
959,53	3409,30
959,96	3451,32
960,38	3450,25
960,81	3431,42
961,24	3423,05
961,66	3424,60
962,09	3397,28
962,51	3424,62
962,94	3464,40
963,37	3458,95
963,79	3471,92
964,22	3469,52
964,64	3425,42
965,07	3440,80
965,49	3430,98
965,92	3450,95
966,35	3432,80
966,77	3427,92
967,20	3467,70
967,62	3433,02
968,05	3430,62
968,47	3460,30
968,90	3417,28
969,32	3426,98
969,75	3478,18
970,17	3588,00
970,60	3466,08
971,03	3435,62
971,45	3455,30
971,88	3416,60
972,30	3425,08
972,73	3458,80
973,15	3432,45
973,58	3441,62
974,00	3412,95
974,43	3419,32
974,85	3430,30
975,28	3454,28
975,70	3435,42
976,13	3457,00
976,55	3447,65
976,98	3423,42
977,40	3421,48
977,83	3417,60
978,25	3442,20
978,68	3412,15
979,10	3464,75
979,53	3443,22
979,95	3434,35
980,37	3436,50
980,80	3430,00
981,22	3470,72
981,65	3459,48
982,07	3424,70
982,50	3454,82
982,92	3472,02
983,35	3442,22
983,77	3439,28
984,20	3425,72
984,62	3432,52
985,04	3425,88
985,47	3468,90
985,89	3465,10
986,32	3411,55
986,74	3397,38
987,17	3431,28
987,59	3461,10
988,01	3429,12
988,44	3419,72
988,86	3448,00
989,29	3438,18
989,71	3438,28
990,13	3433,30
990,56	3446,05
990,98	3442,68
991,41	3425,25
991,83	3449,52
992,25	3441,98
992,68	3445,60
993,10	3498,35
993,53	3431,55
993,95	3415,48
994,37	3433,48
994,80	3424,42
995,22	3428,22
995,64	3459,30
996,07	3466,45
996,49	3446,12
996,91	3440,48
997,34	3401,78
997,76	3408,48
998,18	3391,68
998,61	3479,60
999,03	3466,10
999,45	3425,52
999,88	3447,40
1000,30	3417,82
1000,72	3490,08
1001,15	3442,10
1001,57	3442,95
1001,99	3482,98
1002,42	3417,05
1002,84	3440,90
1003,26	3456,55
1003,69	3440,02
1004,11	3447,48
1004,53	3437,00
1004,96	3457,55
1005,38	3411,42
1005,80	3452,72
1006,22	3451,08
1006,65	3485,88
1007,07	3439,68
1007,49	3411,88
1007,92	3460,35
1008,34	3435,18
1008,76	3419,75
1009,18	3401,68
1009,61	3439,48
1010,03	3428,68
1010,45	3561,48
1010,87	3478,50
1011,30	3469,08
1011,72	3455,75
1012,14	3454,62
1012,56	3469,95
1012,99	3438,78
1013,41	3459,42
1013,83	3452,78
1014,25	3453,92
1014,68	3451,00
1015,10	3414,88
1015,52	3485,72
1015,94	3407,35
1016,37	3469,50
1016,79	3426,38
1017,21	3439,80
1017,63	3419,45
1018,05	3455,22
1018,48	3429,28
1018,90	3433,48
1019,32	3440,60
1019,74	3395,20
1020,16	3539,80
1020,59	3482,82
1021,01	3459,02
1021,43	3429,20
1021,85	3435,82
1022,27	3447,88
1022,69	3448,02
1023,12	3461,00
1023,54	3437,98
1023,96	3565,02
1024,38	3476,02
1024,80	3470,18
1025,22	3459,88
1025,65	3446,82
1026,07	3451,40
1026,49	3469,60
1026,91	3423,98
1027,33	3421,02
1027,75	3520,70
1028,17	3464,60
1028,60	3455,62
1029,02	3442,30
1029,44	3456,15
1029,86	3425,60
1030,28	3520,55
1030,70	3445,75
1031,12	3439,95
1031,54	3455,08
1031,97	3486,70
1032,39	3418,95
1032,81	3450,40
1033,23	3462,82
1033,65	3442,52
1034,07	3473,28
1034,49	3419,78
1034,91	3418,68
1035,33	3462,42
1035,75	3472,12
1036,18	3431,72
1036,60	3500,82
1037,02	3426,90
1037,44	3428,22
1037,86	3450,75
1038,28	3404,75
1038,70	3477,02
1039,12	3470,85
1039,54	3469,32
1039,96	3493,82
1040,38	3495,85
1040,80	3442,80
1041,22	3444,32
1041,64	3462,70
1042,06	3435,28
1042,48	3496,40
1042,90	3492,10
1043,32	3462,38
1043,74	3475,95
1044,17	3448,55
1044,59	3475,80
1045,01	3425,35
1045,43	3443,95
1045,85	3440,92
1046,27	3415,80
1046,69	3455,72
1047,11	3471,40
1047,53	3426,22
1047,95	3461,02
1048,37	3484,55
1048,79	3429,35
1049,21	3476,02
1049,63	3469,12
1050,05	3478,45
1050,47	3442,48
1050,89	3444,45
1051,31	3469,48
1051,72	3475,48
1052,14	3499,50
1052,56	3490,45
1052,98	3457,65
1053,40	3480,25
1053,82	3401,15
1054,24	3453,48
1054,66	3407,32
1055,08	3453,65
1055,50	3434,15
1055,92	3460,52
1056,34	3475,52
1056,76	3518,15
1057,18	3490,60
1057,60	3484,00
1058,02	3456,12
1058,44	3588,40
1058,86	3432,68
1059,28	3480,30
1059,69	3479,62
1060,11	3457,92
1060,53	3449,20
1060,95	3444,08
1061,37	3483,95
1061,79	3460,98
1062,21	3446,05
1062,63	3482,30
1063,05	3511,22
1063,47	3469,70
1063,88	3453,20
1064,30	3439,68
1064,72	3492,82
1065,14	3492,42
1065,56	3448,92
1065,98	3432,22
1066,40	3418,42
1066,82	3484,02
1067,23	3465,35
1067,65	3459,18
1068,07	3465,28
1068,49	3446,58
1068,91	3512,68
1069,33	3463,72
1069,75	3441,05
1070,16	3425,08
1070,58	3487,22
1071,00	3491,52
1071,42	3489,38
1071,84	3447,28
1072,26	3476,58
1072,67	3443,02
1073,09	3432,08
1073,51	3424,58
1073,93	3477,85
1074,35	3444,15
1074,77	3425,22
1075,18	3446,48
1075,60	3449,15
1076,02	3462,05
1076,44	3442,08
1076,86	3436,12
1077,27	3459,52
1077,69	3489,08
1078,11	3441,70
1078,53	3480,90
1078,94	3507,22
1079,36	3408,15
1079,78	3465,05
1080,20	3444,68
1080,62	3452,78
1081,03	3477,00
1081,45	3457,25
1081,87	3446,70
1082,29	3470,68
1082,70	3451,90
1083,12	3452,70
1083,54	3456,52
1083,96	3458,75
1084,37	3487,10
1084,79	3458,38
1085,21	3445,95
1085,63	3497,98
1086,04	3433,35
1086,46	3442,72
1086,88	3469,45
1087,30	3418,78
1087,71	3476,88
1088,13	5200,85
1088,55	3447,18
1088,96	3436,42
1089,38	3451,68
1089,80	3450,30
1090,22	3490,75
1090,63	3452,35
1091,05	3432,85
1091,47	3460,75
1091,88	3446,60
1092,30	3433,70
1092,72	3452,08
1093,13	3443,35
1093,55	3456,68
1093,97	3445,92
1094,38	3455,00
1094,80	3445,92
1095,22	3456,22
1095,63	3442,98
1096,05	3450,12
1096,47	3470,15
1096,88	3425,15
1097,30	3458,02
1097,72	3435,52
1098,13	3475,48
1098,55	3472,38
1098,97	3482,88
1099,38	3449,72
1099,80	3445,72
1100,21	3435,00
1100,63	3442,30
1101,05	3437,02
1101,46	3458,15
1101,88	3422,68
1102,30	3442,55
1102,71	3446,75
1103,13	3448,50
1103,54	3463,42
1103,96	3439,38
1104,38	3503,62
1104,79	3400,60
1105,21	3452,18
1105,62	3450,08
1106,04	3428,22
1106,46	3443,82
1106,87	3401,98
1107,29	3414,80
1107,70	3478,68
1108,12	3411,82
1108,54	3461,98
1108,95	3461,05
1109,37	3457,35
1109,78	3400,28
1110,20	3432,10
1110,61	3406,75
1111,03	3406,75
1111,44	3406,75
1111,86	3406,75
1112,28	3406,75
1112,69	3406,75
1113,11	3406,75
1113,52	3406,75
1113,94	3406,75
1114,35	3406,75
1114,77	3406,75
1115,18	3406,75
1115,60	3406,75
1116,01	3406,75
1116,43	3406,75
1116,84	3406,75
1117,26	3406,75
1117,67	3406,75
1118,09	3406,75
1118,50	3406,75
1118,92	3406,75
>>>>>End Processed Spectral Data<<<<<
