SpectraSuite Data File
++++++++++++++++++++++++++++++++++++
Date: Tue Jul 12 15:40:08 EEST 2011
User: OO Maya
Dark Spectrum Present: No
Reference Spectrum Present: No
Number of Sampled Component Spectra: 1
Spectrometers: MAYP11278
Integration Time (usec): 20000 (MAYP11278)
Spectra Averaged: 40 (MAYP11278)
Boxcar Smoothing: 0 (MAYP11278)
Correct for Electrical Dark: No (MAYP11278)
Strobe/Lamp Enabled: No (MAYP11278)
Correct for Detector Non-linearity: No (MAYP11278)
Correct for Stray Light: No (MAYP11278)
Number of Pixels in Processed Spectrum: 2068
>>>>>Begin Processed Spectral Data<<<<<
200,00	3023,05
200,47	2994,90
200,95	2995,88
201,42	2991,82
201,89	3025,20
202,37	3026,55
202,84	3023,28
203,31	3026,10
203,79	3028,05
204,26	3024,55
204,73	3024,18
205,20	3025,50
205,68	3027,05
206,15	3028,08
206,62	3030,72
207,10	3026,55
207,57	3030,52
208,04	3026,05
208,51	3027,90
208,99	3033,70
209,46	3023,80
209,93	3026,25
210,41	3024,62
210,88	3025,02
211,35	3028,25
211,82	3028,72
212,30	3024,85
212,77	3028,15
213,24	3029,30
213,71	3029,30
214,19	3028,78
214,66	3025,15
215,13	3028,42
215,60	3025,00
216,08	3029,78
216,55	3029,15
217,02	3026,35
217,49	3026,05
217,96	3029,28
218,44	3025,00
218,91	3028,80
219,38	3033,50
219,85	3028,22
220,33	3028,52
220,80	3026,85
221,27	3029,02
221,74	3029,08
222,21	3027,30
222,69	3027,02
223,16	3029,18
223,63	3027,75
224,10	3025,95
224,57	3033,05
225,04	3030,35
225,52	3027,55
225,99	3031,68
226,46	3026,50
226,93	3032,00
227,40	3027,55
227,87	3028,10
228,35	3029,65
228,82	3026,50
229,29	3026,90
229,76	3028,60
230,23	3030,58
230,70	3026,15
231,18	3025,38
231,65	3025,50
232,12	3028,10
232,59	3031,80
233,06	3027,02
233,53	3029,48
234,00	3027,12
234,48	3027,90
234,95	3026,12
235,42	3031,12
235,89	3029,32
236,36	3027,32
236,83	3025,22
237,30	3028,62
237,77	3027,15
238,24	3027,45
238,72	3030,78
239,19	3027,02
239,66	3028,62
240,13	3029,08
240,60	3030,28
241,07	3027,95
241,54	3027,78
242,01	3027,20
242,48	3029,80
242,95	3031,28
243,42	3029,55
243,90	3028,55
244,37	3026,50
244,84	3028,12
245,31	3028,70
245,78	3037,48
246,25	3028,65
246,72	3026,18
247,19	3024,70
247,66	3024,78
248,13	3031,15
248,60	3034,90
249,07	3026,82
249,54	3029,38
250,01	3028,30
250,48	3028,58
250,95	3028,98
251,42	3025,90
251,89	3028,88
252,36	3029,65
252,83	3030,60
253,30	3028,22
253,77	3029,92
254,24	3032,48
254,71	3025,08
255,18	3028,75
255,65	3030,40
256,12	3031,00
256,59	3028,58
257,06	3029,50
257,53	3030,35
258,00	3025,25
258,47	3027,95
258,94	3027,72
259,41	3028,88
259,88	3028,30
260,35	3023,38
260,82	3029,32
261,29	3029,72
261,76	3028,60
262,23	3032,78
262,70	3028,88
263,17	3031,68
263,64	3032,38
264,11	3029,25
264,58	3031,28
265,05	3029,50
265,52	3026,58
265,99	3030,05
266,46	3029,30
266,93	3028,82
267,40	3027,98
267,87	3029,12
268,34	3029,15
268,81	3030,32
269,28	3037,15
269,74	3029,75
270,21	3030,05
270,68	3028,40
271,15	3030,35
271,62	3033,45
272,09	3026,95
272,56	3027,75
273,03	3032,25
273,50	3025,85
273,97	3027,90
274,44	3028,45
274,90	3027,82
275,37	3030,18
275,84	3030,50
276,31	3028,20
276,78	3027,65
277,25	3028,85
277,72	3030,98
278,19	3028,35
278,66	3025,72
279,12	3029,20
279,59	3030,22
280,06	3024,80
280,53	3026,42
281,00	3027,52
281,47	3030,02
281,94	3031,00
282,40	3027,12
282,87	3028,50
283,34	3025,52
283,81	3026,92
284,28	3024,00
284,75	3028,10
285,21	3037,75
285,68	3031,92
286,15	3031,38
286,62	3024,85
287,09	3029,28
287,56	3029,50
288,02	3028,88
288,49	3028,05
288,96	3030,58
289,43	3026,98
289,90	3039,35
290,36	3029,20
290,83	3025,42
291,30	3034,95
291,77	3032,70
292,24	3034,72
292,70	3026,58
293,17	3031,32
293,64	3026,92
294,11	3028,32
294,58	3028,75
295,04	3028,32
295,51	3026,60
295,98	3031,08
296,45	3027,12
296,91	3027,82
297,38	3029,20
297,85	3026,12
298,32	3030,02
298,79	3030,98
299,25	3028,22
299,72	3030,25
300,19	3024,22
300,66	3031,52
301,12	3027,48
301,59	3028,68
302,06	3027,90
302,52	3028,70
302,99	3034,60
303,46	3026,28
303,93	3031,62
304,39	3028,00
304,86	3030,90
305,33	3029,08
305,80	3026,95
306,26	3029,68
306,73	3029,32
307,20	3032,88
307,66	3032,72
308,13	3028,60
308,60	3029,22
309,07	3028,58
309,53	3028,30
310,00	3033,12
310,47	3029,30
310,93	3030,42
311,40	3027,42
311,87	3030,12
312,33	3031,25
312,80	3031,30
313,27	3026,18
313,73	3030,22
314,20	3031,48
314,67	3027,60
315,13	3027,65
315,60	3025,30
316,07	3026,78
316,53	3028,95
317,00	3029,10
317,47	3029,18
317,93	3028,48
318,40	3027,98
318,87	3028,18
319,33	3026,75
319,80	3029,92
320,26	3031,08
320,73	3029,40
321,20	3030,20
321,66	3030,18
322,13	3026,70
322,60	3032,02
323,06	3028,98
323,53	3033,60
323,99	3028,70
324,46	3026,78
324,93	3028,55
325,39	3027,28
325,86	3027,45
326,32	3031,10
326,79	3029,80
327,26	3028,22
327,72	3030,25
328,19	3028,98
328,65	3036,48
329,12	3028,88
329,59	3028,80
330,05	3025,72
330,52	3029,80
330,98	3033,08
331,45	3029,78
331,91	3028,92
332,38	3025,95
332,85	3025,45
333,31	3033,45
333,78	3028,58
334,24	3028,35
334,71	3025,05
335,17	3028,40
335,64	3027,62
336,10	3029,35
336,57	3028,40
337,03	3029,42
337,50	3029,82
337,96	3028,70
338,43	3028,80
338,90	3030,45
339,36	3026,55
339,83	3028,35
340,29	3026,98
340,76	3026,78
341,22	3030,48
341,69	3030,45
342,15	3034,30
342,62	3025,42
343,08	3033,40
343,55	3030,68
344,01	3028,68
344,48	3031,78
344,94	3028,22
345,41	3029,70
345,87	3036,55
346,34	3026,85
346,80	3027,72
347,27	3028,50
347,73	3029,75
348,19	3027,10
348,66	3027,55
349,12	3032,90
349,59	3030,72
350,05	3027,28
350,52	3027,60
350,98	3026,92
351,45	3028,50
351,91	3030,88
352,38	3026,60
352,84	3028,25
353,30	3030,02
353,77	3028,92
354,23	3027,52
354,70	3027,55
355,16	3025,35
355,63	3028,00
356,09	3029,70
356,55	3027,68
357,02	3028,30
357,48	3032,30
357,95	3025,65
358,41	3031,70
358,87	3030,00
359,34	3025,05
359,80	3030,35
360,27	3029,50
360,73	3027,72
361,19	3027,58
361,66	3030,12
362,12	3033,70
362,59	3032,02
363,05	3027,82
363,51	3028,08
363,98	3029,75
364,44	3028,85
364,91	3029,40
365,37	3029,55
365,83	3032,92
366,30	3027,12
366,76	3032,42
367,22	3027,25
367,69	3033,75
368,15	3030,75
368,61	3025,78
369,08	3026,15
369,54	3025,30
370,00	3026,92
370,47	3029,92
370,93	3032,55
371,39	3027,25
371,86	3029,15
372,32	3027,55
372,78	3027,15
373,25	3029,05
373,71	3033,78
374,17	3029,38
374,64	3027,62
375,10	3029,22
375,56	3028,38
376,03	3025,50
376,49	3028,92
376,95	3027,80
377,42	3028,20
377,88	3025,20
378,34	3026,45
378,80	3031,02
379,27	3025,65
379,73	3029,78
380,19	3028,88
380,66	3027,15
381,12	3028,40
381,58	3027,58
382,04	3025,10
382,51	3025,00
382,97	3029,38
383,43	3030,30
383,89	3025,75
384,36	3027,12
384,82	3030,22
385,28	3024,70
385,74	3030,48
386,21	3027,98
386,67	3028,10
387,13	3025,42
387,59	3028,45
388,06	3028,25
388,52	3027,38
388,98	3028,12
389,44	3029,02
389,91	3027,75
390,37	3031,15
390,83	3029,68
391,29	3031,42
391,75	3031,52
392,22	3027,08
392,68	3027,62
393,14	3029,10
393,60	3031,28
394,06	3028,28
394,53	3041,70
394,99	3029,05
395,45	3026,72
395,91	3027,88
396,37	3032,62
396,84	3026,60
397,30	3025,30
397,76	3031,65
398,22	3028,25
398,68	3031,98
399,14	3026,68
399,61	3029,42
400,07	3029,75
400,53	3031,08
400,99	3030,28
401,45	3028,98
401,91	3029,82
402,38	3028,42
402,84	3027,40
403,30	3034,12
403,76	3027,52
404,22	3030,90
404,68	3026,75
405,14	3029,68
405,61	3041,42
406,07	3024,85
406,53	3029,80
406,99	3029,40
407,45	3026,18
407,91	3027,62
408,37	3025,92
408,83	3024,58
409,29	3031,45
409,76	3025,02
410,22	3028,20
410,68	3026,75
411,14	3029,08
411,60	3030,40
412,06	3028,80
412,52	3026,48
412,98	3031,60
413,44	3029,60
413,90	3031,28
414,36	3035,02
414,83	3030,95
415,29	3026,05
415,75	3031,38
416,21	3029,20
416,67	3034,40
417,13	3028,25
417,59	3031,48
418,05	3028,72
418,51	3025,55
418,97	3032,08
419,43	3023,98
419,89	3032,15
420,35	3027,35
420,81	3031,42
421,27	3026,32
421,73	3025,72
422,19	3031,50
422,65	3028,02
423,11	3029,35
423,57	3029,40
424,03	3032,32
424,49	3027,65
424,96	3032,88
425,42	3028,48
425,88	3027,90
426,34	3033,40
426,80	3028,78
427,26	3028,12
427,72	3030,32
428,18	3028,28
428,64	3031,48
429,10	3025,95
429,56	3028,65
430,02	3027,22
430,47	3030,25
430,93	3026,48
431,39	3028,02
431,85	3026,68
432,31	3028,95
432,77	3029,55
433,23	3031,00
433,69	3026,88
434,15	3030,75
434,61	3027,12
435,07	3031,95
435,53	3028,00
435,99	3032,00
436,45	3029,88
436,91	3030,12
437,37	3027,00
437,83	3032,18
438,29	3027,92
438,75	3029,28
439,21	3030,30
439,67	3037,30
440,12	3026,35
440,58	3028,20
441,04	3032,25
441,50	3033,30
441,96	3029,08
442,42	3026,85
442,88	3029,05
443,34	3025,60
443,80	3031,98
444,26	3026,20
444,72	3029,98
445,17	3027,85
445,63	3026,82
446,09	3030,98
446,55	3030,55
447,01	3029,28
447,47	3026,18
447,93	3029,80
448,39	3038,78
448,85	3029,65
449,30	3031,22
449,76	3031,20
450,22	3027,02
450,68	3026,98
451,14	3036,80
451,60	3025,55
452,06	3029,30
452,51	3028,68
452,97	3025,35
453,43	3033,85
453,89	3030,10
454,35	3029,35
454,81	3028,88
455,26	3029,20
455,72	3027,98
456,18	3029,30
456,64	3027,42
457,10	3027,78
457,56	3028,55
458,01	3031,30
458,47	3029,62
458,93	3026,92
459,39	3027,48
459,85	3027,82
460,30	3029,48
460,76	3031,28
461,22	3027,30
461,68	3032,70
462,14	3029,60
462,59	3028,38
463,05	3029,02
463,51	3032,58
463,97	3029,00
464,43	3027,55
464,88	3031,52
465,34	3027,85
465,80	3032,58
466,26	3029,10
466,71	3029,35
467,17	3025,68
467,63	3028,38
468,09	3027,92
468,54	3027,50
469,00	3027,52
469,46	3026,22
469,92	3031,50
470,37	3031,25
470,83	3027,40
471,29	3026,32
471,75	3031,85
472,20	3028,00
472,66	3027,60
473,12	3030,45
473,58	3025,20
474,03	3029,10
474,49	3029,62
474,95	3027,18
475,40	3029,40
475,86	3029,68
476,32	3028,75
476,78	3029,40
477,23	3028,60
477,69	3028,10
478,15	3026,72
478,60	3030,20
479,06	3029,00
479,52	3028,78
479,97	3028,20
480,43	3027,48
480,89	3028,42
481,34	3027,52
481,80	3031,98
482,26	3030,05
482,71	3027,48
483,17	3029,02
483,63	3027,72
484,08	3030,18
484,54	3029,12
485,00	3030,02
485,45	3026,62
485,91	3029,78
486,37	3032,05
486,82	3028,72
487,28	3030,90
487,74	3028,25
488,19	3032,85
488,65	3030,05
489,10	3027,92
489,56	3027,32
490,02	3028,78
490,47	3029,28
490,93	3026,38
491,39	3028,25
491,84	3027,42
492,30	3028,20
492,75	3032,05
493,21	3029,12
493,67	3029,75
494,12	3025,65
494,58	3027,82
495,03	3025,60
495,49	3029,38
495,95	3024,80
496,40	3026,70
496,86	3027,30
497,31	3029,82
497,77	3027,80
498,23	3032,10
498,68	3027,52
499,14	3029,78
499,59	3025,72
500,05	3028,28
500,50	3025,08
500,96	3030,70
501,41	3029,22
501,87	3027,80
502,33	3027,22
502,78	3027,95
503,24	3027,48
503,69	3027,10
504,15	3031,25
504,60	3028,30
505,06	3028,25
505,51	3033,38
505,97	3032,28
506,42	3026,70
506,88	3027,35
507,33	3028,15
507,79	3034,52
508,24	3028,20
508,70	3027,10
509,15	3028,58
509,61	3027,78
510,06	3030,22
510,52	3027,70
510,97	3028,82
511,43	3029,02
511,88	3027,30
512,34	3027,92
512,79	3028,55
513,25	3028,20
513,70	3026,95
514,16	3028,18
514,61	3030,22
515,07	3026,85
515,52	3030,88
515,98	3029,88
516,43	3026,85
516,89	3026,65
517,34	3024,82
517,80	3026,02
518,25	3027,80
518,70	3028,72
519,16	3032,95
519,61	3030,72
520,07	3025,48
520,52	3025,05
520,98	3025,85
521,43	3028,75
521,89	3022,50
522,34	3031,15
522,79	3030,15
523,25	3024,55
523,70	3027,40
524,16	3028,75
524,61	3030,42
525,06	3035,10
525,52	3030,40
525,97	3027,28
526,43	3037,88
526,88	3027,20
527,33	3025,05
527,79	3026,02
528,24	3026,55
528,70	3030,22
529,15	3029,38
529,60	3028,45
530,06	3029,08
530,51	3024,20
530,97	3033,90
531,42	3030,58
531,87	3026,65
532,33	3030,75
532,78	3027,78
533,23	3029,08
533,69	3031,48
534,14	3028,70
534,59	3027,48
535,05	3027,90
535,50	3026,15
535,96	3029,58
536,41	3027,52
536,86	3026,98
537,32	3025,90
537,77	3028,22
538,22	3030,98
538,68	3023,98
539,13	3031,38
539,58	3026,88
540,03	3029,80
540,49	3029,82
540,94	3029,25
541,39	3027,50
541,85	3025,92
542,30	3028,52
542,75	3027,48
543,21	3027,45
543,66	3027,02
544,11	3029,70
544,57	3027,25
545,02	3030,05
545,47	3029,00
545,92	3028,25
546,38	3033,50
546,83	3030,18
547,28	3041,32
547,73	3025,28
548,19	3031,45
548,64	3026,40
549,09	3025,05
549,55	3028,60
550,00	3029,18
550,45	3025,62
550,90	3034,58
551,36	3024,52
551,81	3033,58
552,26	3030,95
552,71	3027,52
553,17	3025,65
553,62	3028,98
554,07	3028,98
554,52	3027,60
554,97	3029,90
555,43	3029,30
555,88	3026,80
556,33	3027,68
556,78	3027,52
557,24	3033,58
557,69	3027,58
558,14	3025,28
558,59	3028,58
559,04	3027,42
559,50	3032,65
559,95	3028,48
560,40	3025,75
560,85	3030,15
561,30	3026,95
561,76	3026,88
562,21	3026,02
562,66	3027,65
563,11	3033,32
563,56	3027,08
564,01	3030,98
564,47	3023,18
564,92	3029,52
565,37	3033,18
565,82	3027,45
566,27	3026,05
566,72	3027,68
567,18	3026,05
567,63	3026,02
568,08	3028,72
568,53	3027,30
568,98	3027,82
569,43	3026,95
569,88	3027,05
570,34	3029,10
570,79	3031,35
571,24	3026,95
571,69	3029,50
572,14	3026,75
572,59	3028,10
573,04	3029,38
573,49	3031,92
573,94	3027,78
574,40	3026,92
574,85	3028,38
575,30	3030,32
575,75	3026,00
576,20	3028,45
576,65	3029,78
577,10	3028,78
577,55	3026,75
578,00	3029,10
578,45	3030,98
578,91	3028,98
579,36	3030,02
579,81	3028,20
580,26	3027,30
580,71	3027,32
581,16	3028,22
581,61	3031,15
582,06	3029,62
582,51	3025,10
582,96	3028,08
583,41	3024,05
583,86	3029,75
584,31	3027,20
584,76	3027,95
585,21	3025,90
585,66	3031,20
586,11	3029,22
586,56	3027,65
587,01	3029,55
587,46	3029,02
587,92	3026,90
588,37	3028,52
588,82	3029,00
589,27	3027,10
589,72	3026,70
590,17	3028,28
590,62	3028,88
591,07	3028,00
591,52	3029,55
591,97	3025,38
592,42	3032,52
592,87	3028,10
593,32	3026,88
593,77	3027,65
594,22	3027,22
594,67	3030,68
595,12	3025,40
595,56	3028,30
596,01	3026,05
596,46	3027,48
596,91	3028,75
597,36	3030,05
597,81	3026,38
598,26	3024,28
598,71	3030,25
599,16	3028,38
599,61	3030,10
600,06	3028,30
600,51	3030,30
600,96	3026,48
601,41	3028,95
601,86	3030,40
602,31	3027,72
602,76	3025,80
603,21	3031,15
603,66	3031,15
604,11	3030,85
604,55	3028,65
605,00	3025,22
605,45	3027,10
605,90	3031,28
606,35	3026,68
606,80	3027,75
607,25	3032,75
607,70	3028,98
608,15	3031,10
608,60	3026,40
609,04	3036,08
609,49	3025,62
609,94	3027,08
610,39	3025,05
610,84	3025,70
611,29	3029,52
611,74	3027,48
612,19	3028,40
612,64	3027,82
613,08	3022,30
613,53	3027,55
613,98	3025,95
614,43	3028,40
614,88	3027,82
615,33	3027,80
615,78	3035,22
616,22	3030,75
616,67	3028,42
617,12	3026,70
617,57	3029,90
618,02	3024,28
618,47	3032,58
618,91	3030,55
619,36	3027,32
619,81	3035,32
620,26	3025,55
620,71	3026,02
621,16	3024,88
621,60	3024,48
622,05	3030,15
622,50	3028,50
622,95	3025,45
623,40	3027,22
623,84	3028,65
624,29	3029,32
624,74	3026,38
625,19	3027,15
625,64	3027,72
626,08	3030,00
626,53	3028,10
626,98	3028,90
627,43	3030,20
627,87	3026,98
628,32	3030,08
628,77	3031,48
629,22	3030,00
629,66	3025,12
630,11	3025,30
630,56	3032,32
631,01	3026,42
631,46	3026,22
631,90	3029,42
632,35	3026,75
632,80	3028,65
633,25	3028,12
633,69	3025,80
634,14	3030,50
634,59	3029,68
635,03	3025,12
635,48	3026,95
635,93	3028,18
636,38	3026,18
636,82	3028,88
637,27	3027,60
637,72	3029,38
638,16	3028,50
638,61	3030,78
639,06	3027,12
639,51	3026,38
639,95	3024,82
640,40	3026,85
640,85	3024,65
641,29	3026,48
641,74	3026,95
642,19	3026,12
642,63	3027,65
643,08	3027,68
643,53	3026,38
643,97	3029,35
644,42	3029,20
644,87	3027,22
645,31	3026,65
645,76	3025,82
646,21	3025,48
646,65	3028,10
647,10	3027,75
647,55	3026,95
647,99	3026,95
648,44	3027,80
648,89	3025,30
649,33	3027,38
649,78	3029,00
650,23	3026,42
650,67	3025,90
651,12	3026,25
651,56	3025,42
652,01	3029,30
652,46	3027,78
652,90	3028,60
653,35	3030,00
653,80	3029,30
654,24	3028,35
654,69	3024,80
655,13	3030,65
655,58	3027,72
656,03	3036,62
656,47	3025,82
656,92	3026,40
657,36	3025,58
657,81	3028,42
658,26	3027,00
658,70	3028,48
659,15	3028,32
659,59	3026,78
660,04	3028,48
660,48	3026,78
660,93	3026,80
661,38	3025,52
661,82	3027,48
662,27	3025,35
662,71	3026,78
663,16	3028,28
663,60	3027,42
664,05	3027,00
664,49	3028,42
664,94	3025,88
665,38	3036,95
665,83	3026,70
666,28	3028,68
666,72	3027,10
667,17	3025,88
667,61	3027,52
668,06	3023,52
668,50	3025,38
668,95	3028,95
669,39	3025,62
669,84	3027,25
670,28	3026,92
670,73	3025,58
671,17	3028,45
671,62	3026,30
672,06	3029,18
672,51	3030,02
672,95	3035,80
673,40	3032,12
673,84	3024,98
674,29	3029,32
674,73	3026,28
675,18	3032,70
675,62	3023,75
676,07	3026,80
676,51	3031,22
676,95	3026,15
677,40	3031,60
677,84	3031,55
678,29	3028,65
678,73	3027,90
679,18	3031,38
679,62	3034,52
680,07	3028,48
680,51	3028,95
680,96	3024,30
681,40	3026,12
681,84	3026,70
682,29	3026,98
682,73	3027,95
683,18	3026,10
683,62	3035,82
684,07	3026,35
684,51	3027,32
684,95	3029,35
685,40	3027,05
685,84	3026,00
686,29	3027,52
686,73	3024,32
687,17	3023,92
687,62	3026,50
688,06	3026,62
688,51	3030,58
688,95	3029,52
689,39	3028,72
689,84	3031,32
690,28	3028,50
690,73	3029,38
691,17	3029,12
691,61	3027,35
692,06	3024,75
692,50	3026,92
692,94	3025,58
693,39	3028,50
693,83	3026,78
694,27	3035,28
694,72	3029,95
695,16	3024,90
695,60	3026,90
696,05	3026,72
696,49	3025,18
696,94	3028,22
697,38	3024,18
697,82	3026,60
698,27	3025,80
698,71	3029,30
699,15	3029,60
699,59	3026,52
700,04	3028,25
700,48	3038,62
700,92	3028,65
701,37	3028,20
701,81	3031,60
702,25	3027,12
702,70	3025,55
703,14	3028,68
703,58	3025,12
704,03	3029,60
704,47	3030,38
704,91	3027,88
705,35	3028,20
705,80	3028,92
706,24	3030,62
706,68	3036,50
707,13	3025,02
707,57	3030,32
708,01	3026,35
708,45	3026,42
708,90	3028,55
709,34	3027,55
709,78	3026,95
710,22	3031,25
710,67	3031,32
711,11	3030,70
711,55	3025,88
711,99	3029,62
712,44	3025,20
712,88	3028,18
713,32	3030,00
713,76	3030,52
714,21	3027,18
714,65	3027,35
715,09	3026,05
715,53	3028,28
715,97	3025,62
716,42	3029,38
716,86	3030,05
717,30	3027,80
717,74	3025,60
718,18	3032,95
718,63	3026,92
719,07	3026,65
719,51	3030,78
719,95	3030,32
720,39	3027,02
720,84	3027,80
721,28	3027,25
721,72	3027,42
722,16	3024,92
722,60	3022,85
723,04	3030,60
723,49	3031,42
723,93	3025,12
724,37	3025,88
724,81	3026,65
725,25	3026,72
725,69	3024,85
726,14	3028,42
726,58	3025,40
727,02	3029,58
727,46	3027,10
727,90	3025,12
728,34	3025,00
728,78	3028,20
729,23	3024,20
729,67	3027,65
730,11	3024,65
730,55	3027,55
730,99	3028,78
731,43	3026,72
731,87	3032,92
732,31	3024,38
732,76	3030,40
733,20	3029,30
733,64	3026,78
734,08	3029,90
734,52	3025,10
734,96	3030,30
735,40	3023,68
735,84	3029,80
736,28	3027,92
736,72	3027,58
737,16	3028,30
737,61	3024,90
738,05	3028,38
738,49	3028,40
738,93	3025,70
739,37	3029,18
739,81	3027,38
740,25	3028,28
740,69	3034,75
741,13	3025,00
741,57	3028,48
742,01	3031,15
742,45	3029,10
742,89	3027,72
743,33	3025,80
743,77	3026,08
744,21	3025,08
744,65	3030,20
745,09	3027,90
745,53	3026,22
745,98	3028,58
746,42	3028,48
746,86	3027,75
747,30	3028,02
747,74	3025,40
748,18	3027,08
748,62	3028,90
749,06	3028,52
749,50	3029,25
749,94	3027,15
750,38	3029,70
750,82	3033,30
751,26	3023,25
751,70	3024,50
752,14	3025,52
752,58	3029,20
753,02	3025,68
753,45	3025,20
753,89	3028,70
754,33	3033,65
754,77	3027,75
755,21	3025,60
755,65	3024,42
756,09	3027,08
756,53	3026,52
756,97	3026,62
757,41	3032,50
757,85	3026,18
758,29	3026,95
758,73	3025,68
759,17	3025,58
759,61	3027,18
760,05	3026,15
760,49	3028,08
760,93	3031,60
761,37	3026,18
761,80	3031,02
762,24	3028,20
762,68	3026,82
763,12	3026,72
763,56	3028,65
764,00	3025,60
764,44	3026,48
764,88	3028,52
765,32	3025,35
765,76	3028,60
766,20	3027,68
766,63	3024,98
767,07	3026,60
767,51	3025,32
767,95	3029,80
768,39	3028,35
768,83	3025,10
769,27	3026,22
769,71	3027,88
770,14	3027,08
770,58	3024,35
771,02	3024,85
771,46	3027,18
771,90	3027,65
772,34	3027,25
772,78	3029,85
773,21	3024,88
773,65	3031,08
774,09	3026,38
774,53	3027,85
774,97	3026,40
775,41	3026,82
775,84	3029,02
776,28	3026,72
776,72	3028,55
777,16	3025,42
777,60	3026,12
778,04	3027,70
778,47	3022,68
778,91	3027,18
779,35	3025,68
779,79	3027,70
780,23	3027,75
780,66	3024,85
781,10	3027,62
781,54	3025,75
781,98	3028,10
782,42	3027,22
782,85	3028,72
783,29	3027,38
783,73	3035,98
784,17	3030,22
784,61	3026,12
785,04	3028,80
785,48	3029,32
785,92	3024,22
786,36	3026,25
786,79	3024,05
787,23	3028,88
787,67	3029,90
788,11	3030,28
788,54	3027,50
788,98	3028,05
789,42	3026,70
789,86	3026,28
790,29	3029,88
790,73	3030,42
791,17	3031,22
791,60	3025,10
792,04	3026,20
792,48	3029,15
792,92	3024,95
793,35	3025,85
793,79	3024,85
794,23	3024,90
794,67	3025,40
795,10	3026,50
795,54	3028,72
795,98	3027,98
796,41	3026,35
796,85	3025,92
797,29	3037,50
797,72	3030,92
798,16	3028,82
798,60	3027,60
799,03	3027,00
799,47	3024,48
799,91	3027,12
800,34	3026,85
800,78	3027,95
801,22	3027,62
801,65	3025,22
802,09	3027,65
802,53	3029,75
802,96	3027,75
803,40	3026,20
803,84	3031,85
804,27	3028,92
804,71	3026,48
805,15	3026,28
805,58	3028,28
806,02	3026,58
806,46	3028,52
806,89	3029,82
807,33	3030,10
807,76	3028,45
808,20	3026,95
808,64	3024,92
809,07	3031,65
809,51	3031,82
809,95	3031,70
810,38	3031,90
810,82	3031,62
811,25	3025,80
811,69	3027,50
812,13	3024,98
812,56	3030,00
813,00	3029,10
813,43	3026,98
813,87	3025,58
814,30	3028,32
814,74	3030,70
815,18	3035,48
815,61	3026,98
816,05	3026,18
816,48	3028,80
816,92	3032,95
817,35	3030,08
817,79	3027,75
818,23	3029,05
818,66	3028,20
819,10	3028,52
819,53	3026,62
819,97	3027,45
820,40	3026,40
820,84	3028,85
821,27	3027,68
821,71	3028,95
822,14	3027,78
822,58	3028,85
823,01	3030,75
823,45	3028,15
823,88	3030,05
824,32	3026,22
824,75	3027,95
825,19	3025,15
825,63	3031,28
826,06	3026,95
826,50	3029,08
826,93	3028,18
827,37	3026,55
827,80	3028,40
828,23	3028,00
828,67	3028,72
829,10	3029,62
829,54	3025,75
829,97	3027,25
830,41	3022,32
830,84	3026,80
831,28	3028,58
831,71	3031,35
832,15	3025,95
832,58	3029,72
833,02	3027,40
833,45	3024,50
833,89	3033,42
834,32	3027,68
834,75	3032,82
835,19	3028,40
835,62	3029,45
836,06	3023,52
836,49	3026,40
836,93	3027,40
837,36	3030,02
837,79	3028,62
838,23	3027,70
838,66	3026,35
839,10	3029,08
839,53	3027,65
839,97	3027,60
840,40	3026,75
840,83	3029,22
841,27	3026,55
841,70	3028,28
842,14	3027,72
842,57	3027,58
843,00	3031,80
843,44	3032,35
843,87	3029,72
844,31	3031,18
844,74	3024,10
845,17	3025,40
845,61	3023,82
846,04	3025,75
846,47	3029,70
846,91	3029,05
847,34	3027,22
847,77	3027,50
848,21	3026,48
848,64	3026,20
849,08	3027,72
849,51	3028,60
849,94	3028,42
850,38	3025,92
850,81	3027,00
851,24	3025,72
851,68	3026,42
852,11	3026,20
852,54	3029,85
852,98	3030,48
853,41	3029,52
853,84	3027,10
854,28	3029,65
854,71	3025,85
855,14	3027,72
855,57	3029,40
856,01	3026,80
856,44	3025,10
856,87	3030,45
857,31	3025,58
857,74	3028,68
858,17	3025,02
858,61	3027,52
859,04	3029,82
859,47	3030,85
859,90	3027,55
860,34	3028,02
860,77	3027,62
861,20	3025,12
861,63	3030,32
862,07	3022,88
862,50	3024,90
862,93	3027,12
863,37	3027,65
863,80	3028,38
864,23	3028,52
864,66	3026,15
865,10	3027,85
865,53	3027,75
865,96	3025,32
866,39	3027,72
866,82	3028,90
867,26	3025,18
867,69	3027,85
868,12	3026,72
868,55	3024,38
868,99	3027,80
869,42	3024,80
869,85	3029,42
870,28	3025,35
870,71	3027,90
871,15	3027,15
871,58	3027,70
872,01	3028,95
872,44	3028,45
872,87	3031,38
873,31	3032,70
873,74	3023,68
874,17	3028,35
874,60	3027,55
875,03	3026,05
875,47	3026,58
875,90	3029,40
876,33	3026,88
876,76	3030,20
877,19	3029,60
877,62	3028,15
878,06	3025,28
878,49	3029,95
878,92	3023,82
879,35	3027,80
879,78	3026,42
880,21	3028,72
880,64	3027,70
881,08	3027,75
881,51	3029,08
881,94	3026,08
882,37	3032,60
882,80	3027,02
883,23	3025,28
883,66	3026,50
884,09	3027,38
884,53	3028,78
884,96	3027,05
885,39	3026,15
885,82	3028,32
886,25	3026,50
886,68	3025,58
887,11	3029,58
887,54	3025,70
887,97	3028,00
888,40	3030,18
888,84	3025,95
889,27	3027,70
889,70	3032,08
890,13	3025,52
890,56	3024,90
890,99	3027,52
891,42	3025,72
891,85	3036,80
892,28	3025,98
892,71	3029,85
893,14	3025,28
893,57	3028,60
894,00	3029,02
894,43	3023,48
894,86	3025,20
895,29	3027,15
895,73	3025,90
896,16	3026,52
896,59	3026,58
897,02	3026,80
897,45	3030,00
897,88	3028,35
898,31	3024,90
898,74	3026,78
899,17	3028,75
899,60	3024,80
900,03	3024,22
900,46	3025,00
900,89	3028,10
901,32	3029,32
901,75	3025,75
902,18	3025,35
902,61	3026,15
903,04	3030,28
903,47	3027,90
903,90	3026,98
904,33	3031,32
904,76	3031,10
905,19	3026,02
905,62	3025,92
906,05	3032,30
906,48	3027,22
906,91	3029,12
907,34	3026,78
907,76	3026,82
908,19	3024,80
908,62	3029,85
909,05	3027,20
909,48	3029,40
909,91	3027,20
910,34	3027,60
910,77	3028,72
911,20	3031,62
911,63	3029,05
912,06	3023,65
912,49	3028,80
912,92	3027,88
913,35	3026,95
913,78	3025,38
914,21	3027,05
914,63	3027,60
915,06	3026,95
915,49	3027,78
915,92	3028,15
916,35	3025,48
916,78	3022,95
917,21	3025,88
917,64	3027,60
918,07	3026,95
918,50	3029,82
918,92	3027,20
919,35	3029,98
919,78	3026,70
920,21	3030,72
920,64	3025,15
921,07	3027,75
921,50	3026,70
921,93	3027,60
922,35	3028,18
922,78	3027,08
923,21	3031,50
923,64	3028,65
924,07	3025,65
924,50	3025,70
924,92	3023,25
925,35	3028,82
925,78	3030,85
926,21	3028,75
926,64	3025,12
927,07	3028,58
927,49	3023,75
927,92	3028,85
928,35	3032,58
928,78	3027,12
929,21	3028,20
929,64	3024,90
930,06	3035,28
930,49	3028,02
930,92	3025,00
931,35	3030,32
931,78	3027,85
932,20	3027,78
932,63	3029,85
933,06	3026,05
933,49	3027,45
933,92	3025,20
934,34	3030,82
934,77	3031,10
935,20	3034,52
935,63	3026,58
936,05	3029,82
936,48	3030,15
936,91	3029,08
937,34	3027,38
937,76	3025,90
938,19	3026,38
938,62	3025,80
939,05	3030,25
939,47	3025,08
939,90	3028,88
940,33	3025,65
940,76	3028,05
941,18	3028,00
941,61	3024,38
942,04	3028,55
942,47	3030,08
942,89	3032,95
943,32	3025,92
943,75	3027,68
944,17	3027,02
944,60	3026,30
945,03	3029,00
945,46	3026,40
945,88	3024,42
946,31	3030,72
946,74	3026,85
947,16	3029,70
947,59	3027,32
948,02	3027,75
948,44	3028,00
948,87	3031,15
949,30	3026,02
949,72	3027,80
950,15	3028,90
950,58	3026,52
951,00	3025,75
951,43	3027,00
951,86	3034,32
952,28	3030,45
952,71	3026,75
953,14	3027,80
953,56	3028,32
953,99	3023,90
954,42	3028,88
954,84	3025,65
955,27	3032,75
955,70	3024,18
956,12	3025,40
956,55	3027,20
956,98	3026,62
957,40	3026,05
957,83	3029,02
958,25	3024,40
958,68	3029,12
959,11	3035,72
959,53	3024,10
959,96	3028,05
960,38	3027,55
960,81	3026,22
961,24	3025,25
961,66	3025,25
962,09	3024,90
962,51	3027,75
962,94	3029,88
963,37	3028,50
963,79	3028,70
964,22	3029,45
964,64	3024,80
965,07	3026,35
965,49	3027,02
965,92	3028,70
966,35	3026,15
966,77	3025,68
967,20	3029,28
967,62	3025,85
968,05	3027,02
968,47	3030,00
968,90	3026,45
969,32	3027,08
969,75	3029,40
970,17	3039,02
970,60	3028,35
971,03	3026,58
971,45	3028,28
971,88	3026,75
972,30	3027,45
972,73	3028,88
973,15	3027,65
973,58	3026,92
974,00	3024,98
974,43	3025,10
974,85	3025,62
975,28	3027,88
975,70	3027,42
976,13	3027,28
976,55	3028,10
976,98	3024,98
977,40	3026,70
977,83	3026,52
978,25	3028,00
978,68	3025,12
979,10	3029,72
979,53	3027,50
979,95	3028,18
980,37	3026,10
980,80	3026,40
981,22	3028,52
981,65	3026,40
982,07	3025,82
982,50	3029,25
982,92	3029,38
983,35	3025,70
983,77	3026,60
984,20	3026,48
984,62	3027,30
985,04	3026,45
985,47	3029,82
985,89	3029,30
986,32	3023,30
986,74	3023,20
987,17	3025,70
987,59	3027,22
988,01	3026,02
988,44	3024,70
988,86	3027,20
989,29	3025,40
989,71	3026,90
990,13	3027,40
990,56	3029,00
990,98	3027,72
991,41	3026,08
991,83	3030,55
992,25	3027,80
992,68	3027,42
993,10	3032,25
993,53	3026,55
993,95	3024,15
994,37	3026,20
994,80	3025,55
995,22	3026,82
995,64	3028,38
996,07	3028,28
996,49	3029,12
996,91	3025,52
997,34	3025,00
997,76	3024,40
998,18	3023,00
998,61	3029,55
999,03	3029,48
999,45	3027,25
999,88	3027,05
1000,30	3025,00
1000,72	3031,62
1001,15	3026,58
1001,57	3027,42
1001,99	3031,45
1002,42	3026,82
1002,84	3027,20
1003,26	3028,60
1003,69	3026,10
1004,11	3027,75
1004,53	3026,35
1004,96	3027,35
1005,38	3025,58
1005,80	3028,60
1006,22	3028,18
1006,65	3030,60
1007,07	3027,32
1007,49	3024,30
1007,92	3029,95
1008,34	3027,30
1008,76	3025,85
1009,18	3023,20
1009,61	3027,82
1010,03	3025,00
1010,45	3035,02
1010,87	3028,40
1011,30	3030,22
1011,72	3025,88
1012,14	3028,88
1012,56	3029,42
1012,99	3026,38
1013,41	3029,72
1013,83	3028,80
1014,25	3027,95
1014,68	3027,48
1015,10	3024,75
1015,52	3029,90
1015,94	3025,08
1016,37	3029,28
1016,79	3025,30
1017,21	3025,65
1017,63	3024,65
1018,05	3028,38
1018,48	3028,18
1018,90	3027,00
1019,32	3028,28
1019,74	3023,15
1020,16	3036,00
1020,59	3031,28
1021,01	3029,05
1021,43	3028,22
1021,85	3025,98
1022,27	3029,70
1022,69	3027,28
1023,12	3028,70
1023,54	3027,25
1023,96	3038,08
1024,38	3029,75
1024,80	3030,88
1025,22	3029,95
1025,65	3028,10
1026,07	3027,98
1026,49	3029,45
1026,91	3026,15
1027,33	3025,50
1027,75	3034,72
1028,17	3030,82
1028,60	3028,50
1029,02	3028,45
1029,44	3029,50
1029,86	3024,80
1030,28	3034,02
1030,70	3027,28
1031,12	3027,70
1031,54	3030,65
1031,97	3030,08
1032,39	3023,62
1032,81	3029,38
1033,23	3028,25
1033,65	3026,75
1034,07	3030,92
1034,49	3026,38
1034,91	3025,88
1035,33	3029,15
1035,75	3027,65
1036,18	3025,55
1036,60	3032,52
1037,02	3027,05
1037,44	3027,75
1037,86	3026,95
1038,28	3024,18
1038,70	3029,08
1039,12	3030,15
1039,54	3030,40
1039,96	3031,08
1040,38	3031,15
1040,80	3028,22
1041,22	3029,00
1041,64	3027,20
1042,06	3026,30
1042,48	3031,02
1042,90	3031,40
1043,32	3029,30
1043,74	3029,82
1044,17	3027,42
1044,59	3030,62
1045,01	3024,50
1045,43	3028,22
1045,85	3027,82
1046,27	3025,42
1046,69	3027,45
1047,11	3029,68
1047,53	3025,28
1047,95	3029,32
1048,37	3030,50
1048,79	3024,60
1049,21	3031,12
1049,63	3028,22
1050,05	3029,08
1050,47	3026,68
1050,89	3027,65
1051,31	3028,18
1051,72	3029,25
1052,14	3032,00
1052,56	3030,25
1052,98	3027,05
1053,40	3030,28
1053,82	3025,12
1054,24	3025,35
1054,66	3023,32
1055,08	3027,48
1055,50	3026,12
1055,92	3027,32
1056,34	3030,02
1056,76	3033,70
1057,18	3030,00
1057,60	3029,12
1058,02	3027,90
1058,44	3038,85
1058,86	3025,15
1059,28	3028,18
1059,69	3030,00
1060,11	3028,80
1060,53	3026,58
1060,95	3026,42
1061,37	3029,92
1061,79	3029,20
1062,21	3027,02
1062,63	3030,55
1063,05	3032,88
1063,47	3027,92
1063,88	3027,85
1064,30	3027,25
1064,72	3030,85
1065,14	3030,62
1065,56	3025,25
1065,98	3026,55
1066,40	3026,32
1066,82	3029,62
1067,23	3028,05
1067,65	3027,98
1068,07	3028,30
1068,49	3027,98
1068,91	3031,72
1069,33	3027,68
1069,75	3024,82
1070,16	3024,48
1070,58	3030,80
1071,00	3030,78
1071,42	3030,02
1071,84	3030,02
1072,26	3027,90
1072,67	3025,40
1073,09	3027,25
1073,51	3024,22
1073,93	3028,25
1074,35	3027,50
1074,77	3024,95
1075,18	3026,60
1075,60	3027,08
1076,02	3028,00
1076,44	3027,80
1076,86	3025,30
1077,27	3028,20
1077,69	3030,72
1078,11	3026,68
1078,53	3031,62
1078,94	3030,80
1079,36	3024,60
1079,78	3026,75
1080,20	3026,88
1080,62	3028,82
1081,03	3031,10
1081,45	3025,48
1081,87	3025,85
1082,29	3028,22
1082,70	3027,65
1083,12	3027,35
1083,54	3026,82
1083,96	3028,48
1084,37	3031,02
1084,79	3028,02
1085,21	3027,25
1085,63	3031,80
1086,04	3024,45
1086,46	3026,40
1086,88	3029,65
1087,30	3025,28
1087,71	3030,48
1088,13	3156,80
1088,55	3026,28
1088,96	3025,92
1089,38	3025,62
1089,80	3027,08
1090,22	3030,18
1090,63	3028,05
1091,05	3026,02
1091,47	3029,15
1091,88	3026,68
1092,30	3026,08
1092,72	3026,85
1093,13	3027,38
1093,55	3027,18
1093,97	3026,98
1094,38	3028,05
1094,80	3027,00
1095,22	3027,75
1095,63	3026,15
1096,05	3027,55
1096,47	3028,45
1096,88	3024,70
1097,30	3027,75
1097,72	3026,28
1098,13	3029,22
1098,55	3027,68
1098,97	3030,28
1099,38	3025,88
1099,80	3024,98
1100,21	3024,32
1100,63	3027,00
1101,05	3026,38
1101,46	3027,60
1101,88	3025,95
1102,30	3026,15
1102,71	3026,38
1103,13	3026,75
1103,54	3027,08
1103,96	3027,50
1104,38	3032,20
1104,79	3024,22
1105,21	3026,72
1105,62	3026,32
1106,04	3025,98
1106,46	3028,22
1106,87	3023,15
1107,29	3023,80
1107,70	3029,85
1108,12	3024,62
1108,54	3026,42
1108,95	3027,22
1109,37	3027,92
1109,78	3022,35
1110,20	3025,42
1110,61	3022,85
1111,03	3022,85
1111,44	3022,85
1111,86	3022,85
1112,28	3022,85
1112,69	3022,85
1113,11	3022,85
1113,52	3022,85
1113,94	3022,85
1114,35	3022,85
1114,77	3022,85
1115,18	3022,85
1115,60	3022,85
1116,01	3022,85
1116,43	3022,85
1116,84	3022,85
1117,26	3022,85
1117,67	3022,85
1118,09	3022,85
1118,50	3022,85
1118,92	3022,85
>>>>>End Processed Spectral Data<<<<<
