SpectraSuite Data File
++++++++++++++++++++++++++++++++++++
Date: Wed Nov 27 16:37:58 EET 2013
User: OO Maya
Dark Spectrum Present: No
Reference Spectrum Present: No
Number of Sampled Component Spectra: 1
Spectrometers: MAYP11278
Integration Time (usec): 30000 (MAYP11278)
Spectra Averaged: 5 (MAYP11278)
Boxcar Smoothing: 0 (MAYP11278)
Correct for Electrical Dark: No (MAYP11278)
Strobe/Lamp Enabled: No (MAYP11278)
Correct for Detector Non-linearity: No (MAYP11278)
Correct for Stray Light: No (MAYP11278)
Number of Pixels in Processed Spectrum: 2068
>>>>>Begin Processed Spectral Data<<<<<
188,05	2291,00
188,53	2213,60
189,01	2181,80
189,49	2181,00
189,96	2224,80
190,44	2231,00
190,92	2225,60
191,40	2229,40
191,88	2235,60
192,36	2226,20
192,83	2231,00
193,31	2226,20
193,79	2231,80
194,27	2228,20
194,75	2228,00
195,23	2225,60
195,70	2232,20
196,18	2226,40
196,66	2225,20
197,14	2233,80
197,62	2227,80
198,09	2228,40
198,57	2223,60
199,05	2229,00
199,53	2227,00
200,01	2230,20
200,48	2226,80
200,96	2229,80
201,44	2230,60
201,92	2228,40
202,39	2232,40
202,87	2224,60
203,35	2227,80
203,83	2225,20
204,31	2226,40
204,78	2235,80
205,26	2226,40
205,74	2224,00
206,22	2234,60
206,69	2231,60
207,17	2228,40
207,65	2233,20
208,13	2232,60
208,60	2230,00
209,08	2225,60
209,56	2229,80
210,04	2229,60
210,51	2228,40
210,99	2229,40
211,47	2231,00
211,94	2230,40
212,42	2225,40
212,90	2230,80
213,38	2232,40
213,85	2224,60
214,33	2231,00
214,81	2230,00
215,29	2231,60
215,76	2228,00
216,24	2230,20
216,72	2233,40
217,19	2233,60
217,67	2227,20
218,15	2230,80
218,62	2233,00
219,10	2226,40
219,58	2226,60
220,05	2228,60
220,53	2225,20
221,01	2241,00
221,49	2225,00
221,96	2233,80
222,44	2231,20
222,92	2229,40
223,39	2232,40
223,87	2231,00
224,35	2233,80
224,82	2226,80
225,30	2227,80
225,78	2227,80
226,25	2227,40
226,73	2226,80
227,21	2233,40
227,68	2226,20
228,16	2229,00
228,63	2232,00
229,11	2228,00
229,59	2232,60
230,06	2231,20
230,54	2228,60
231,02	2231,40
231,49	2239,00
231,97	2233,80
232,45	2229,60
232,92	2227,00
233,40	2228,60
233,87	2229,00
234,35	2238,20
234,83	2229,60
235,30	2230,40
235,78	2228,60
236,25	2224,20
236,73	2237,20
237,21	2233,40
237,68	2224,40
238,16	2229,00
238,63	2230,80
239,11	2229,20
239,59	2229,60
240,06	2229,60
240,54	2231,40
241,01	2235,40
241,49	2229,60
241,96	2224,80
242,44	2237,20
242,92	2237,20
243,39	2227,00
243,87	2229,40
244,34	2233,20
244,82	2234,20
245,29	2232,20
245,77	2228,40
246,24	2233,80
246,72	2227,80
247,20	2229,60
247,67	2230,00
248,15	2233,20
248,62	2232,00
249,10	2225,60
249,57	2224,60
250,05	2234,80
250,52	2231,40
251,00	2239,00
251,47	2231,00
251,95	2235,60
252,42	2233,20
252,90	2228,40
253,37	2231,00
253,85	2229,20
254,32	2228,40
254,80	2229,60
255,27	2232,40
255,75	2231,60
256,22	2229,20
256,70	2233,20
257,17	2229,80
257,65	2231,40
258,12	2236,40
258,60	2234,80
259,07	2231,80
259,55	2232,20
260,02	2234,20
260,50	2236,80
260,97	2228,80
261,45	2233,40
261,92	2234,40
262,40	2226,20
262,87	2234,40
263,35	2228,00
263,82	2228,00
264,30	2233,60
264,77	2232,20
265,25	2231,00
265,72	2230,40
266,19	2232,60
266,67	2233,40
267,14	2228,20
267,62	2229,40
268,09	2229,80
268,57	2230,80
269,04	2229,80
269,51	2229,80
269,99	2230,60
270,46	2234,40
270,94	2232,60
271,41	2231,00
271,89	2226,00
272,36	2226,00
272,83	2225,20
273,31	2223,20
273,78	2231,20
274,26	2237,20
274,73	2232,80
275,20	2233,20
275,68	2229,60
276,15	2229,00
276,63	2226,80
277,10	2232,40
277,57	2231,40
278,05	2231,20
278,52	2224,20
279,00	2246,00
279,47	2231,80
279,94	2229,40
280,42	2240,80
280,89	2235,40
281,36	2239,40
281,84	2227,00
282,31	2234,00
282,78	2230,60
283,26	2230,00
283,73	2228,20
284,21	2225,40
284,68	2226,40
285,15	2234,20
285,63	2235,00
286,10	2228,20
286,57	2233,40
287,05	2227,20
287,52	2233,60
287,99	2232,80
288,47	2227,60
288,94	2225,60
289,41	2227,20
289,89	2232,60
290,36	2230,60
290,83	2231,20
291,30	2227,20
291,78	2233,40
292,25	2238,00
292,72	2226,60
293,20	2234,80
293,67	2230,80
294,14	2234,00
294,62	2236,00
295,09	2230,60
295,56	2235,20
296,03	2234,20
296,51	2233,00
296,98	2232,80
297,45	2232,40
297,93	2235,40
298,40	2231,40
298,87	2230,60
299,34	2232,60
299,82	2227,80
300,29	2233,60
300,76	2231,80
301,23	2230,20
301,71	2233,80
302,18	2233,80
302,65	2227,00
303,12	2236,40
303,60	2232,00
304,07	2228,40
304,54	2230,00
305,01	2229,60
305,49	2231,20
305,96	2234,00
306,43	2231,00
306,90	2234,00
307,38	2231,40
307,85	2232,60
308,32	2232,00
308,79	2230,20
309,27	2231,80
309,74	2233,00
310,21	2228,80
310,68	2231,60
311,15	2230,60
311,63	2232,80
312,10	2233,80
312,57	2231,60
313,04	2235,20
313,51	2231,20
313,99	2231,20
314,46	2232,20
314,93	2230,80
315,40	2229,00
315,87	2233,00
316,34	2231,80
316,82	2229,80
317,29	2228,80
317,76	2229,60
318,23	2236,80
318,70	2231,80
319,17	2230,60
319,65	2225,80
320,12	2231,60
320,59	2232,80
321,06	2233,80
321,53	2230,20
322,00	2228,40
322,48	2227,40
322,95	2235,80
323,42	2232,00
323,89	2235,80
324,36	2229,00
324,83	2230,80
325,30	2231,80
325,78	2231,20
326,25	2231,80
326,72	2228,80
327,19	2233,80
327,66	2227,00
328,13	2233,40
328,60	2231,40
329,07	2230,60
329,54	2230,60
330,02	2230,20
330,49	2227,60
330,96	2235,20
331,43	2230,40
331,90	2235,00
332,37	2229,60
332,84	2237,40
333,31	2232,20
333,78	2230,60
334,25	2233,40
334,72	2231,00
335,20	2231,80
335,67	2238,80
336,14	2231,80
336,61	2227,00
337,08	2228,60
337,55	2234,40
338,02	2227,00
338,49	2232,60
338,96	2234,40
339,43	2234,60
339,90	2227,20
340,37	2233,60
340,84	2227,20
341,31	2235,60
341,78	2230,00
342,25	2229,20
342,72	2227,00
343,19	2233,60
343,67	2232,40
344,14	2229,00
344,61	2233,80
345,08	2232,20
345,55	2230,60
346,02	2230,40
346,49	2230,20
346,96	2231,00
347,43	2237,80
347,90	2229,00
348,37	2232,40
348,84	2230,20
349,31	2228,40
349,78	2229,00
350,25	2230,60
350,72	2228,00
351,19	2228,60
351,66	2229,00
352,13	2234,40
352,60	2229,60
353,07	2230,20
353,54	2233,80
354,01	2234,60
354,48	2231,80
354,94	2230,60
355,41	2232,20
355,88	2231,60
356,35	2227,80
356,82	2234,60
357,29	2228,60
357,76	2238,80
358,23	2230,40
358,70	2229,40
359,17	2226,60
359,64	2228,00
360,11	2230,80
360,58	2229,60
361,05	2231,20
361,52	2229,00
361,99	2229,80
362,46	2234,40
362,93	2230,20
363,39	2230,60
363,86	2239,40
364,33	2231,60
364,80	2227,20
365,27	2235,40
365,74	2229,80
366,21	2229,20
366,68	2240,00
367,15	2228,80
367,62	2283,80
368,09	2226,60
368,55	2231,00
369,02	2231,40
369,49	2227,20
369,96	2232,60
370,43	2230,80
370,90	2231,00
371,37	2232,00
371,84	2228,40
372,31	2231,80
372,77	2227,00
373,24	2233,00
373,71	2231,40
374,18	2231,20
374,65	2229,40
375,12	2230,20
375,59	2228,00
376,05	2229,80
376,52	2228,80
376,99	2230,80
377,46	2234,20
377,93	2230,40
378,40	2234,80
378,86	2228,40
379,33	2228,20
379,80	2227,40
380,27	2235,80
380,74	2234,20
381,21	2232,80
381,67	2235,20
382,14	2236,20
382,61	2229,40
383,08	2231,80
383,55	2230,00
384,02	2231,40
384,48	2230,80
384,95	2244,60
385,42	2230,00
385,89	2234,40
386,36	2227,20
386,82	2233,40
387,29	2236,60
387,76	2226,80
388,23	2231,40
388,69	2234,20
389,16	2233,00
389,63	2231,60
390,10	2234,00
390,57	2230,80
391,03	2231,80
391,50	2230,60
391,97	2229,80
392,44	2229,80
392,90	2228,60
393,37	2228,60
393,84	2235,20
394,31	2233,00
394,77	2238,40
395,24	2227,80
395,71	2233,80
396,18	2245,40
396,64	2231,20
397,11	2237,00
397,58	2232,40
398,05	2228,40
398,51	2229,60
398,98	2227,20
399,45	2226,00
399,92	2233,00
400,38	2228,80
400,85	2231,60
401,32	2231,20
401,78	2233,00
402,25	2229,00
402,72	2230,80
403,18	2231,60
403,65	2234,60
404,12	2229,80
404,59	2236,40
405,05	2234,40
405,52	2235,20
405,99	2228,40
406,45	2234,00
406,92	2228,80
407,39	2235,20
407,85	2230,00
408,32	2231,80
408,79	2230,80
409,25	2226,60
409,72	2233,00
410,19	2227,60
410,65	2233,20
411,12	2228,40
411,59	2235,80
412,05	2229,60
412,52	2227,80
412,99	2233,40
413,45	2230,00
413,92	2232,40
414,39	2233,40
414,85	2234,80
415,32	2226,00
415,78	2234,80
416,25	2233,40
416,72	2232,00
417,18	2236,00
417,65	2230,00
418,12	2228,60
418,58	2228,40
419,05	2227,80
419,51	2233,00
419,98	2230,80
420,45	2229,00
420,91	2228,20
421,38	2231,00
421,84	2230,60
422,31	2230,40
422,78	2228,00
423,24	2226,20
423,71	2231,20
424,17	2233,60
424,64	2231,80
425,11	2231,00
425,57	2234,60
426,04	2235,40
426,50	2228,40
426,97	2236,00
427,43	2233,60
427,90	2232,60
428,37	2228,80
428,83	2232,40
429,30	2230,00
429,76	2228,40
430,23	2232,00
430,69	2237,00
431,16	2227,20
431,62	2228,80
432,09	2240,20
432,55	2237,00
433,02	2226,40
433,48	2227,00
433,95	2229,00
434,42	2229,40
434,88	2231,60
435,35	2229,60
435,81	2229,60
436,28	2229,40
436,74	2228,60
437,21	2233,80
437,67	2229,60
438,14	2234,20
438,60	2231,40
439,07	2226,00
439,53	2244,80
440,00	2231,40
440,46	2235,20
440,93	2230,60
441,39	2227,80
441,86	2225,00
442,32	2240,60
442,79	2225,00
443,25	2230,00
443,72	2234,40
444,18	2225,00
444,64	2237,80
445,11	2235,40
445,57	2235,20
446,04	2232,20
446,50	2229,20
446,97	2230,60
447,43	2228,60
447,90	2224,60
448,36	2232,80
448,83	2233,40
449,29	2227,00
449,75	2231,40
450,22	2227,00
450,68	2226,00
451,15	2227,60
451,61	2231,00
452,08	2232,20
452,54	2227,40
453,00	2233,00
453,47	2229,20
453,93	2229,00
454,40	2229,80
454,86	2232,60
455,32	2229,20
455,79	2231,80
456,25	2230,00
456,72	2228,40
457,18	2229,80
457,64	2232,00
458,11	2231,20
458,57	2230,00
459,04	2232,60
459,50	2231,40
459,96	2230,20
460,43	2229,40
460,89	2224,40
461,36	2234,40
461,82	2231,20
462,28	2230,00
462,75	2230,00
463,21	2233,60
463,67	2229,40
464,14	2228,60
464,60	2233,60
465,06	2228,60
465,53	2225,40
465,99	2227,80
466,45	2228,40
466,92	2229,60
467,38	2232,20
467,84	2227,00
468,31	2230,00
468,77	2231,80
469,23	2229,60
469,70	2226,40
470,16	2229,80
470,62	2231,40
471,09	2232,00
471,55	2232,00
472,01	2230,60
472,48	2230,00
472,94	2230,00
473,40	2234,40
473,87	2228,40
474,33	2229,80
474,79	2230,80
475,25	2227,80
475,72	2230,40
476,18	2233,20
476,64	2232,80
477,11	2230,80
477,57	2232,00
478,03	2236,00
478,49	2228,60
478,96	2235,00
479,42	2228,80
479,88	2235,20
480,35	2228,60
480,81	2232,60
481,27	2229,80
481,73	2229,20
482,20	2228,60
482,66	2229,80
483,12	2229,00
483,58	2228,20
484,05	2229,40
484,51	2237,20
484,97	2230,80
485,43	2231,80
485,89	2225,00
486,36	2232,40
486,82	2227,80
487,28	2229,60
487,74	2223,40
488,21	2226,60
488,67	2228,60
489,13	2232,00
489,59	2231,20
490,05	2231,40
490,52	2225,00
490,98	2232,80
491,44	2229,80
491,90	2231,20
492,36	2225,20
492,83	2232,60
493,29	2229,00
493,75	2231,80
494,21	2230,80
494,67	2225,80
495,14	2229,20
495,60	2229,60
496,06	2228,80
496,52	2227,40
496,98	2228,00
497,44	2235,00
497,91	2233,60
498,37	2233,00
498,83	2229,40
499,29	2227,60
499,75	2236,00
500,21	2235,00
500,67	2228,60
501,14	2227,60
501,60	2229,80
502,06	2228,60
502,52	2231,40
502,98	2231,00
503,44	2225,20
503,90	2235,00
504,37	2233,60
504,83	2231,00
505,29	2230,60
505,75	2228,80
506,21	2226,80
506,67	2232,00
507,13	2231,20
507,59	2230,00
508,05	2232,00
508,51	2228,80
508,98	2231,20
509,44	2231,60
509,90	2227,80
510,36	2230,00
510,82	2229,40
511,28	2230,40
511,74	2234,80
512,20	2227,20
512,66	2227,20
513,12	2231,20
513,58	2232,20
514,04	2223,00
514,51	2235,00
514,97	2237,00
515,43	2226,20
515,89	2229,20
516,35	2234,20
516,81	2235,20
517,27	2237,20
517,73	2231,00
518,19	2228,40
518,65	2237,60
519,11	2228,20
519,57	2226,60
520,03	2228,20
520,49	2230,80
520,95	2228,00
521,41	2231,20
521,87	2227,60
522,33	2227,00
522,79	2227,40
523,25	2241,60
523,71	2231,00
524,17	2225,80
524,63	2233,80
525,09	2231,20
525,55	2231,00
526,01	2237,20
526,47	2231,40
526,93	2229,40
527,39	2230,40
527,85	2227,60
528,31	2229,20
528,77	2232,20
529,23	2231,20
529,69	2223,40
530,15	2230,20
530,61	2234,60
531,07	2226,20
531,53	2236,80
531,99	2227,00
532,45	2226,40
532,91	2225,80
533,37	2234,00
533,83	2230,00
534,29	2227,00
534,75	2227,20
535,21	2225,40
535,67	2229,40
536,12	2229,00
536,58	2231,40
537,04	2227,40
537,50	2230,60
537,96	2225,20
538,42	2230,40
538,88	2232,60
539,34	2237,00
539,80	2247,40
540,26	2225,80
540,72	2236,40
541,18	2230,00
541,63	2224,20
542,09	2227,20
542,55	2225,40
543,01	2229,20
543,47	2232,60
543,93	2226,60
544,39	2236,60
544,85	2232,20
545,31	2229,80
545,76	2232,00
546,22	2233,60
546,68	2229,80
547,14	2232,60
547,60	2229,20
548,06	2231,40
548,52	2229,20
548,98	2230,00
549,43	2228,60
549,89	2235,80
550,35	2226,60
550,81	2225,60
551,27	2232,40
551,73	2230,80
552,19	2235,60
552,64	2229,40
553,10	2229,60
553,56	2230,80
554,02	2233,20
554,48	2226,20
554,93	2228,80
555,39	2231,00
555,85	2236,40
556,31	2231,40
556,77	2236,40
557,23	2230,20
557,68	2229,80
558,14	2235,20
558,60	2228,00
559,06	2226,60
559,52	2227,20
559,97	2228,20
560,43	2226,60
560,89	2227,00
561,35	2229,80
561,81	2229,60
562,26	2231,20
562,72	2231,80
563,18	2233,40
563,64	2234,00
564,09	2227,60
564,55	2229,80
565,01	2228,60
565,47	2229,00
565,92	2231,20
566,38	2232,60
566,84	2228,40
567,30	2230,00
567,75	2228,00
568,21	2234,40
568,67	2229,00
569,13	2229,60
569,58	2234,60
570,04	2232,00
570,50	2227,40
570,96	2231,60
571,41	2229,40
571,87	2228,60
572,33	2230,60
572,78	2231,20
573,24	2228,20
573,70	2227,80
574,16	2229,60
574,61	2236,00
575,07	2233,40
575,53	2228,80
575,98	2232,60
576,44	2227,80
576,90	2232,80
577,36	2226,80
577,81	2227,60
578,27	2229,60
578,73	2236,60
579,18	2230,80
579,64	2224,40
580,10	2229,80
580,55	2232,40
581,01	2224,60
581,47	2233,20
581,92	2230,60
582,38	2226,80
582,84	2228,60
583,29	2228,40
583,75	2231,20
584,21	2227,20
584,66	2231,20
585,12	2228,60
585,57	2238,20
586,03	2225,40
586,49	2230,40
586,94	2229,60
587,40	2232,00
587,86	2231,00
588,31	2222,60
588,77	2230,60
589,22	2231,60
589,68	2228,60
590,14	2232,60
590,59	2233,80
591,05	2226,40
591,51	2226,20
591,96	2231,00
592,42	2229,20
592,87	2229,40
593,33	2226,60
593,78	2230,60
594,24	2229,00
594,70	2229,60
595,15	2235,20
595,61	2227,20
596,06	2226,40
596,52	2234,80
596,98	2233,20
597,43	2230,40
597,89	2230,80
598,34	2226,00
598,80	2225,60
599,25	2236,00
599,71	2229,80
600,16	2230,60
600,62	2233,20
601,08	2229,20
601,53	2229,20
601,99	2224,00
602,44	2243,60
602,90	2226,60
603,35	2229,60
603,81	2226,60
604,26	2224,60
604,72	2233,80
605,17	2232,00
605,63	2231,40
606,08	2228,20
606,54	2224,80
606,99	2229,80
607,45	2229,00
607,90	2229,20
608,36	2231,80
608,81	2232,00
609,27	2239,60
609,72	2233,00
610,18	2228,80
610,63	2225,40
611,09	2230,00
611,54	2228,60
612,00	2234,20
612,45	2229,60
612,91	2224,80
613,36	2238,80
613,82	2227,00
614,27	2227,60
614,73	2227,80
615,18	2228,60
615,64	2229,80
616,09	2231,00
616,54	2226,60
617,00	2228,40
617,45	2233,80
617,91	2229,40
618,36	2225,20
618,82	2230,60
619,27	2228,60
619,72	2234,80
620,18	2233,00
620,63	2230,60
621,09	2231,00
621,54	2228,60
622,00	2229,40
622,45	2230,60
622,90	2231,40
623,36	2227,60
623,81	2223,80
624,27	2236,20
624,72	2232,00
625,17	2225,40
625,63	2231,20
626,08	2224,20
626,54	2228,60
626,99	2228,40
627,44	2231,20
627,90	2233,00
628,35	2231,60
628,81	2228,80
629,26	2226,40
629,71	2229,00
630,17	2225,40
630,62	2231,40
631,07	2228,40
631,53	2230,60
631,98	2234,60
632,43	2229,80
632,89	2226,60
633,34	2228,60
633,79	2224,60
634,25	2222,40
634,70	2224,60
635,15	2229,60
635,61	2227,20
636,06	2225,00
636,51	2230,20
636,97	2231,00
637,42	2229,20
637,87	2231,00
638,33	2231,20
638,78	2225,40
639,23	2228,00
639,69	2226,20
640,14	2226,80
640,59	2232,80
641,05	2231,40
641,50	2227,80
641,95	2227,40
642,40	2227,60
642,86	2226,00
643,31	2227,80
643,76	2233,20
644,22	2228,00
644,67	2225,80
645,12	2228,60
645,57	2227,20
646,03	2228,20
646,48	2230,00
646,93	2229,20
647,38	2229,60
647,84	2227,80
648,29	2230,80
648,74	2226,00
649,19	2231,40
649,65	2229,20
650,10	2238,60
650,55	2231,20
651,00	2232,80
651,46	2227,60
651,91	2229,00
652,36	2229,40
652,81	2230,80
653,27	2232,20
653,72	2222,80
654,17	2228,20
654,62	2234,20
655,07	2225,20
655,53	2229,80
655,98	2234,00
656,43	2229,00
656,88	2229,20
657,33	2232,00
657,79	2230,80
658,24	2232,20
658,69	2231,20
659,14	2227,20
659,59	2240,40
660,05	2228,80
660,50	2232,20
660,95	2228,80
661,40	2228,60
661,85	2228,00
662,30	2227,20
662,76	2226,20
663,21	2233,00
663,66	2232,60
664,11	2229,40
664,56	2228,80
665,01	2228,40
665,47	2228,40
665,92	2231,60
666,37	2231,80
666,82	2225,40
667,27	2235,40
667,72	2232,60
668,17	2225,80
668,62	2232,20
669,08	2228,00
669,53	2230,00
669,98	2224,80
670,43	2224,80
670,88	2231,60
671,33	2233,60
671,78	2232,40
672,23	2235,80
672,69	2229,80
673,14	2229,00
673,59	2231,80
674,04	2240,40
674,49	2230,80
674,94	2232,60
675,39	2225,60
675,84	2228,60
676,29	2230,40
676,74	2225,20
677,19	2228,60
677,64	2227,60
678,10	2233,20
678,55	2228,40
679,00	2226,60
679,45	2228,60
679,90	2227,80
680,35	2225,40
680,80	2230,20
681,25	2227,00
681,70	2224,20
682,15	2227,20
682,60	2231,60
683,05	2232,00
683,50	2231,80
683,95	2227,40
684,40	2232,00
684,85	2229,00
685,30	2233,60
685,75	2230,20
686,20	2227,80
686,65	2228,00
687,10	2229,20
687,55	2226,40
688,00	2228,20
688,45	2228,00
688,90	2239,00
689,35	2230,20
689,80	2226,80
690,25	2228,40
690,70	2228,40
691,15	2223,20
691,60	2228,60
692,05	2226,00
692,50	2230,60
692,95	2226,00
693,40	2226,80
693,85	2232,40
694,30	2229,00
694,75	2230,20
695,20	2241,60
695,65	2226,60
696,10	2229,60
696,55	2229,20
697,00	2230,40
697,45	2227,20
697,90	2231,80
698,35	2230,80
698,80	2231,80
699,24	2226,00
699,69	2227,80
700,14	2229,40
700,59	2229,80
701,04	2232,20
701,49	2234,00
701,94	2227,60
702,39	2235,00
702,84	2225,60
703,29	2224,60
703,74	2225,60
704,19	2226,80
704,63	2226,60
705,08	2233,00
705,53	2229,60
705,98	2227,40
706,43	2225,00
706,88	2229,60
707,33	2229,60
707,78	2227,40
708,22	2233,20
708,67	2231,40
709,12	2230,80
709,57	2229,40
710,02	2229,60
710,47	2227,40
710,92	2227,20
711,37	2229,80
711,81	2230,80
712,26	2229,60
712,71	2223,60
713,16	2239,80
713,61	2228,20
714,06	2233,60
714,50	2232,20
714,95	2227,80
715,40	2226,00
715,85	2233,00
716,30	2223,20
716,75	2229,20
717,19	2224,40
717,64	2226,00
718,09	2228,20
718,54	2230,80
718,99	2223,20
719,43	2225,80
719,88	2228,20
720,33	2226,20
720,78	2227,00
721,23	2230,60
721,67	2226,00
722,12	2231,00
722,57	2231,80
723,02	2226,00
723,47	2227,80
723,91	2227,80
724,36	2224,40
724,81	2229,80
725,26	2230,40
725,70	2229,60
726,15	2228,60
726,60	2231,00
727,05	2234,20
727,49	2227,40
727,94	2232,00
728,39	2232,80
728,84	2226,40
729,28	2234,00
729,73	2228,80
730,18	2229,80
730,63	2220,80
731,07	2226,00
731,52	2230,40
731,97	2229,80
732,41	2230,00
732,86	2228,00
733,31	2234,40
733,76	2228,60
734,20	2227,00
734,65	2229,80
735,10	2229,80
735,54	2230,40
735,99	2235,40
736,44	2227,40
736,89	2232,00
737,33	2230,60
737,78	2231,60
738,23	2227,60
738,67	2225,80
739,12	2230,20
739,57	2228,20
740,01	2232,00
740,46	2228,40
740,91	2225,60
741,35	2234,40
741,80	2233,00
742,25	2230,20
742,69	2226,00
743,14	2227,80
743,59	2225,60
744,03	2227,00
744,48	2232,80
744,92	2236,40
745,37	2228,40
745,82	2230,20
746,26	2230,60
746,71	2224,20
747,16	2226,40
747,60	2226,00
748,05	2231,20
748,49	2231,60
748,94	2224,20
749,39	2228,80
749,83	2232,60
750,28	2230,60
750,73	2228,40
751,17	2229,60
751,62	2228,00
752,06	2227,20
752,51	2223,60
752,95	2238,00
753,40	2223,80
753,85	2223,40
754,29	2224,40
754,74	2227,20
755,18	2227,80
755,63	2226,00
756,07	2227,20
756,52	2229,80
756,97	2230,80
757,41	2236,00
757,86	2231,60
758,30	2231,40
758,75	2232,60
759,19	2225,00
759,64	2224,40
760,08	2226,20
760,53	2228,80
760,98	2226,00
761,42	2237,00
761,87	2232,00
762,31	2226,80
762,76	2227,20
763,20	2229,60
763,65	2230,80
764,09	2224,80
764,54	2223,80
764,98	2228,20
765,43	2228,40
765,87	2225,20
766,32	2223,60
766,76	2226,40
767,21	2225,60
767,65	2226,00
768,10	2228,60
768,54	2229,20
768,99	2231,00
769,43	2232,20
769,88	2224,20
770,32	2228,80
770,77	2230,80
771,21	2228,40
771,65	2230,00
772,10	2225,20
772,54	2229,60
772,99	2224,00
773,43	2227,00
773,88	2223,60
774,32	2225,60
774,77	2226,60
775,21	2228,00
775,65	2231,40
776,10	2228,20
776,54	2227,80
776,99	2226,40
777,43	2230,40
777,88	2233,00
778,32	2231,80
778,76	2229,60
779,21	2229,60
779,65	2237,20
780,10	2231,40
780,54	2231,40
780,99	2229,20
781,43	2230,40
781,87	2225,20
782,32	2226,80
782,76	2225,80
783,20	2230,40
783,65	2228,80
784,09	2233,20
784,54	2226,60
784,98	2228,80
785,42	2231,40
785,87	2224,20
786,31	2230,80
786,75	2233,60
787,20	2234,20
787,64	2224,20
788,09	2226,60
788,53	2231,60
788,97	2229,00
789,42	2229,00
789,86	2225,40
790,30	2231,20
790,75	2222,60
791,19	2229,20
791,63	2231,80
792,08	2226,20
792,52	2229,60
792,96	2230,40
793,41	2238,00
793,85	2235,80
794,29	2232,00
794,74	2231,60
795,18	2228,20
795,62	2224,00
796,06	2233,80
796,51	2226,80
796,95	2229,40
797,39	2228,80
797,84	2226,00
798,28	2229,60
798,72	2232,60
799,16	2229,20
799,61	2226,80
800,05	2233,60
800,49	2229,20
800,94	2227,00
801,38	2230,40
801,82	2231,40
802,26	2228,20
802,71	2233,00
803,15	2233,60
803,59	2229,60
804,03	2228,80
804,48	2232,80
804,92	2225,20
805,36	2235,00
805,80	2237,40
806,25	2231,20
806,69	2233,80
807,13	2235,80
807,57	2229,20
808,01	2228,40
808,46	2227,00
808,90	2229,60
809,34	2229,40
809,78	2228,20
810,23	2224,60
810,67	2228,20
811,11	2230,00
811,55	2241,00
811,99	2224,80
812,44	2226,40
812,88	2231,00
813,32	2236,80
813,76	2230,60
814,20	2228,60
814,64	2233,00
815,09	2233,80
815,53	2226,20
815,97	2227,60
816,41	2228,60
816,85	2227,60
817,29	2228,60
817,74	2231,80
818,18	2234,40
818,62	2229,00
819,06	2231,40
819,50	2235,40
819,94	2227,40
820,39	2234,20
820,83	2230,40
821,27	2227,40
821,71	2230,20
822,15	2235,60
822,59	2227,20
823,03	2228,60
823,47	2231,60
823,92	2222,60
824,36	2230,60
824,80	2230,40
825,24	2230,60
825,68	2226,20
826,12	2230,20
826,56	2232,80
827,00	2225,00
827,44	2229,00
827,88	2238,60
828,33	2232,40
828,77	2226,00
829,21	2232,00
829,65	2230,40
830,09	2227,80
830,53	2235,20
830,97	2226,40
831,41	2240,60
831,85	2231,60
832,29	2234,00
832,73	2227,60
833,17	2232,60
833,61	2227,00
834,05	2231,40
834,49	2229,80
834,93	2229,60
835,37	2231,00
835,82	2235,40
836,26	2232,60
836,70	2229,60
837,14	2226,40
837,58	2233,80
838,02	2223,60
838,46	2226,00
838,90	2232,60
839,34	2229,40
839,78	2236,60
840,22	2234,60
840,66	2230,20
841,10	2234,80
841,54	2223,00
841,98	2225,20
842,42	2226,40
842,86	2230,80
843,30	2234,60
843,74	2232,00
844,18	2232,20
844,62	2226,60
845,06	2229,00
845,50	2233,40
845,94	2230,20
846,37	2232,00
846,81	2226,60
847,25	2226,80
847,69	2234,80
848,13	2229,40
848,57	2225,80
849,01	2233,40
849,45	2231,60
849,89	2235,20
850,33	2229,80
850,77	2230,00
851,21	2237,60
851,65	2227,00
852,09	2230,20
852,53	2230,60
852,97	2230,00
853,40	2228,60
853,84	2229,80
854,28	2225,40
854,72	2234,80
855,16	2226,40
855,60	2226,40
856,04	2232,00
856,48	2232,80
856,92	2228,60
857,36	2224,80
857,79	2231,60
858,23	2230,00
858,67	2229,20
859,11	2226,80
859,55	2232,00
859,99	2229,20
860,43	2228,00
860,87	2229,20
861,30	2232,60
861,74	2225,40
862,18	2230,00
862,62	2231,20
863,06	2228,40
863,50	2232,20
863,94	2232,60
864,37	2228,00
864,81	2230,80
865,25	2230,60
865,69	2226,00
866,13	2232,20
866,57	2223,20
867,00	2232,20
867,44	2229,80
867,88	2229,40
868,32	2228,60
868,76	2227,40
869,19	2230,60
869,63	2229,40
870,07	2239,00
870,51	2235,60
870,95	2230,60
871,38	2229,00
871,82	2228,60
872,26	2228,80
872,70	2229,20
873,14	2229,20
873,57	2230,40
874,01	2230,60
874,45	2234,20
874,89	2225,60
875,32	2231,00
875,76	2228,80
876,20	2227,20
876,64	2230,20
877,07	2231,80
877,51	2229,80
877,95	2224,60
878,39	2226,80
878,82	2227,80
879,26	2229,40
879,70	2233,60
880,14	2228,80
880,57	2230,40
881,01	2230,20
881,45	2231,00
881,89	2230,20
882,32	2233,40
882,76	2227,40
883,20	2229,40
883,63	2227,00
884,07	2230,00
884,51	2228,80
884,94	2230,00
885,38	2233,40
885,82	2231,00
886,26	2231,20
886,69	2226,20
887,13	2240,40
887,57	2226,60
888,00	2227,00
888,44	2231,00
888,88	2232,00
889,31	2238,20
889,75	2230,20
890,19	2234,60
890,62	2231,60
891,06	2231,40
891,50	2232,80
891,93	2228,60
892,37	2226,80
892,81	2228,00
893,24	2227,20
893,68	2226,40
894,11	2231,80
894,55	2229,00
894,99	2232,80
895,42	2229,00
895,86	2228,60
896,30	2228,00
896,73	2232,20
897,17	2226,00
897,60	2229,40
898,04	2227,60
898,48	2229,60
898,91	2233,40
899,35	2228,80
899,78	2224,80
900,22	2227,60
900,66	2233,20
901,09	2227,80
901,53	2223,00
901,96	2236,00
902,40	2235,20
902,84	2226,00
903,27	2228,40
903,71	2236,40
904,14	2226,40
904,58	2230,40
905,01	2228,00
905,45	2227,40
905,88	2227,60
906,32	2236,00
906,76	2233,20
907,19	2234,60
907,63	2225,60
908,06	2230,40
908,50	2230,80
908,93	2230,40
909,37	2233,00
909,80	2225,00
910,24	2230,60
910,67	2233,20
911,11	2229,60
911,54	2229,20
911,98	2228,80
912,41	2229,80
912,85	2231,80
913,28	2225,20
913,72	2232,80
914,15	2236,20
914,59	2227,60
915,02	2227,80
915,46	2228,00
915,89	2225,40
916,33	2234,40
916,76	2229,20
917,20	2234,00
917,63	2228,60
918,07	2229,80
918,50	2229,40
918,94	2228,60
919,37	2228,00
919,81	2233,20
920,24	2233,00
920,67	2235,20
921,11	2234,20
921,54	2230,00
921,98	2233,00
922,41	2228,20
922,85	2224,80
923,28	2230,40
923,72	2232,20
924,15	2232,00
924,58	2231,40
925,02	2231,00
925,45	2228,20
925,89	2232,60
926,32	2236,00
926,75	2227,00
927,19	2231,20
927,62	2229,60
928,06	2236,00
928,49	2231,40
928,92	2224,00
929,36	2234,00
929,79	2231,20
930,23	2229,20
930,66	2233,60
931,09	2229,80
931,53	2231,00
931,96	2227,20
932,39	2233,20
932,83	2233,00
933,26	2242,20
933,70	2231,60
934,13	2231,40
934,56	2231,80
935,00	2230,80
935,43	2233,40
935,86	2222,60
936,30	2230,60
936,73	2228,20
937,16	2230,40
937,60	2226,60
938,03	2232,40
938,46	2231,60
938,90	2228,00
939,33	2230,20
939,76	2231,00
940,19	2230,60
940,63	2233,60
941,06	2234,80
941,49	2229,00
941,93	2232,80
942,36	2227,40
942,79	2231,40
943,23	2229,20
943,66	2230,00
944,09	2224,20
944,52	2233,40
944,96	2227,20
945,39	2234,40
945,82	2231,00
946,26	2231,40
946,69	2231,80
947,12	2235,40
947,55	2227,80
947,99	2231,20
948,42	2233,40
948,85	2225,80
949,28	2223,60
949,72	2230,60
950,15	2235,40
950,58	2237,40
951,01	2230,80
951,45	2232,00
951,88	2230,80
952,31	2228,00
952,74	2231,00
953,17	2231,20
953,61	2232,80
954,04	2227,00
954,47	2229,20
954,90	2231,60
955,33	2228,40
955,77	2228,00
956,20	2229,20
956,63	2227,00
957,06	2229,00
957,49	2239,00
957,93	2226,80
958,36	2232,20
958,79	2229,80
959,22	2227,20
959,65	2231,40
960,08	2228,80
960,52	2220,60
960,95	2227,00
961,38	2231,80
961,81	2232,00
962,24	2232,00
962,67	2231,20
963,11	2228,20
963,54	2232,60
963,97	2229,00
964,40	2230,20
964,83	2230,20
965,26	2231,80
965,69	2230,40
966,13	2232,60
966,56	2230,40
966,99	2229,80
967,42	2228,80
967,85	2228,20
968,28	2232,20
968,71	2244,80
969,14	2232,80
969,57	2231,20
970,01	2227,40
970,44	2229,40
970,87	2228,20
971,30	2230,00
971,73	2230,20
972,16	2226,60
972,59	2226,20
973,02	2224,60
973,45	2229,00
973,88	2231,00
974,31	2229,80
974,74	2230,80
975,17	2234,80
975,61	2230,00
976,04	2231,40
976,47	2229,40
976,90	2231,00
977,33	2231,00
977,76	2234,80
978,19	2230,80
978,62	2227,20
979,05	2229,60
979,48	2231,00
979,91	2235,40
980,34	2232,00
980,77	2228,80
981,20	2232,00
981,63	2232,20
982,06	2233,80
982,49	2229,80
982,92	2232,00
983,35	2228,00
983,78	2226,20
984,21	2237,00
984,64	2233,60
985,07	2228,60
985,50	2229,00
985,93	2229,40
986,36	2239,00
986,79	2231,40
987,22	2228,80
987,65	2234,00
988,08	2227,00
988,51	2233,60
988,94	2230,00
989,37	2230,80
989,80	2230,80
990,23	2229,00
990,66	2235,20
991,09	2234,00
991,51	2231,00
991,94	2232,20
992,37	2230,40
992,80	2228,60
993,23	2228,40
993,66	2228,00
994,09	2228,60
994,52	2229,60
994,95	2235,80
995,38	2234,00
995,81	2230,60
996,24	2233,00
996,67	2229,80
997,09	2227,60
997,52	2238,00
997,95	2229,60
998,38	2230,00
998,81	2232,40
999,24	2228,20
999,67	2234,60
1000,10	2230,60
1000,53	2230,00
1000,95	2236,60
1001,38	2230,60
1001,81	2233,20
1002,24	2235,20
1002,67	2231,60
1003,10	2230,20
1003,53	2225,40
1003,95	2231,80
1004,38	2227,80
1004,81	2228,60
1005,24	2228,80
1005,67	2235,40
1006,10	2231,60
1006,52	2227,80
1006,95	2231,00
1007,38	2232,00
1007,81	2229,40
1008,24	2228,80
1008,67	2228,20
1009,09	2232,40
1009,52	2242,40
1009,95	2230,20
1010,38	2236,40
1010,81	2233,00
1011,23	2232,60
1011,66	2229,40
1012,09	2228,80
1012,52	2239,00
1012,95	2226,80
1013,37	2232,20
1013,80	2235,00
1014,23	2228,80
1014,66	2234,40
1015,08	2230,40
1015,51	2227,20
1015,94	2229,40
1016,37	2229,60
1016,80	2229,20
1017,22	2232,20
1017,65	2233,20
1018,08	2283,20
1018,51	2231,40
1018,93	2223,20
1019,36	2241,00
1019,79	2230,40
1020,21	2232,60
1020,64	2230,60
1021,07	2229,20
1021,50	2229,00
1021,92	2231,60
1022,35	2231,60
1022,78	2232,40
1023,21	2242,00
1023,63	2235,60
1024,06	2230,00
1024,49	2229,60
1024,91	2232,40
1025,34	2230,00
1025,77	2230,60
1026,19	2228,60
1026,62	2225,60
1027,05	2237,80
1027,47	2232,00
1027,90	2230,40
1028,33	2230,20
1028,75	2232,20
1029,18	2230,20
1029,61	2238,20
1030,03	2231,00
1030,46	2230,40
1030,89	2232,80
1031,31	2233,20
1031,74	2225,00
1032,17	2234,20
1032,59	2234,00
1033,02	2229,80
1033,45	2237,20
1033,87	2227,20
1034,30	2231,60
1034,73	2230,40
1035,15	2233,20
1035,58	2228,20
1036,00	2238,20
1036,43	2226,60
1036,86	2227,80
1037,28	2235,20
1037,71	2227,80
1038,13	2232,60
1038,56	2232,60
1038,99	2231,00
1039,41	2235,60
1039,84	2235,00
1040,26	2229,80
1040,69	2225,80
1041,11	2234,60
1041,54	2226,40
1041,97	2233,00
1042,39	2234,80
1042,82	2232,40
1043,24	2233,60
1043,67	2231,40
1044,09	2233,80
1044,52	2229,00
1044,95	2228,40
1045,37	2229,20
1045,80	2230,00
1046,22	2236,00
1046,65	2233,20
1047,07	2228,20
1047,50	2230,20
1047,92	2237,60
1048,35	2229,80
1048,77	2233,20
1049,20	2231,00
1049,62	2238,00
1050,05	2228,80
1050,47	2227,40
1050,90	2229,80
1051,32	2234,80
1051,75	2234,60
1052,17	2235,60
1052,60	2232,40
1053,02	2235,60
1053,45	2229,60
1053,87	2231,40
1054,30	2226,60
1054,72	2230,60
1055,15	2230,20
1055,57	2231,60
1056,00	2228,20
1056,42	2235,40
1056,85	2232,20
1057,27	2233,40
1057,70	2229,80
1058,12	2245,80
1058,54	2231,80
1058,97	2228,20
1059,39	2227,60
1059,82	2232,80
1060,24	2231,80
1060,67	2228,60
1061,09	2235,60
1061,51	2233,20
1061,94	2227,40
1062,36	2237,60
1062,79	2234,40
1063,21	2230,40
1063,64	2227,00
1064,06	2226,80
1064,48	2231,80
1064,91	2232,00
1065,33	2229,40
1065,76	2226,20
1066,18	2227,00
1066,60	2236,20
1067,03	2230,40
1067,45	2230,20
1067,87	2234,80
1068,30	2229,80
1068,72	2236,60
1069,15	2228,60
1069,57	2232,20
1069,99	2229,40
1070,42	2235,60
1070,84	2235,20
1071,26	2236,40
1071,69	2231,60
1072,11	2233,80
1072,53	2226,40
1072,96	2231,20
1073,38	2227,60
1073,80	2229,60
1074,23	2231,20
1074,65	2226,80
1075,07	2234,20
1075,50	2231,00
1075,92	2230,80
1076,34	2225,60
1076,77	2225,40
1077,19	2234,80
1077,61	2231,00
1078,04	2230,00
1078,46	2231,60
1078,88	2230,60
1079,30	2226,20
1079,73	2229,80
1080,15	2228,00
1080,57	2232,80
1081,00	2235,40
1081,42	2234,20
1081,84	2232,60
1082,26	2230,00
1082,69	2232,80
1083,11	2231,80
1083,53	2231,20
1083,95	2228,20
1084,38	2233,40
1084,80	2232,40
1085,22	2229,60
1085,64	2232,20
1086,07	2230,80
1086,49	2226,60
1086,91	2233,80
1087,33	2231,60
1087,76	2231,40
1088,18	2328,40
1088,60	2232,80
1089,02	2231,40
1089,45	2235,80
1089,87	2228,40
1090,29	2235,00
1090,71	2234,60
1091,13	2225,60
1091,56	2236,40
1091,98	2229,60
1092,40	2230,60
1092,82	2233,40
1093,24	2227,80
1093,66	2230,80
1094,09	2232,40
1094,51	2230,00
1094,93	2230,20
1095,35	2230,40
1095,77	2229,60
1096,19	2233,60
1096,62	2228,60
1097,04	2226,40
1097,46	2232,20
1097,88	2231,00
1098,30	2234,20
1098,72	2230,40
1099,15	2232,20
1099,57	2229,40
1099,99	2232,20
1100,41	2235,40
1100,83	2230,40
1101,25	2229,40
1101,67	2228,80
1102,09	2229,00
1102,52	2229,20
1102,94	2229,60
1103,36	2232,20
1103,78	2231,80
1104,20	2228,40
1104,62	2233,60
1105,04	2231,40
1105,46	2230,20
1105,88	2228,80
1106,30	2225,20
1106,73	2231,40
1107,15	2226,40
1107,57	2229,60
1107,99	2231,00
1108,41	2228,40
1108,83	2232,80
1109,25	2230,60
1109,67	2230,00
1110,09	2227,00
1110,51	2230,80
1110,93	2227,20
1111,35	2226,20
1111,77	2228,40
1112,19	2229,00
1112,61	2229,60
1113,03	2229,80
1113,45	2234,20
1113,87	2226,80
1114,29	2229,20
1114,71	2234,20
1115,13	2229,20
1115,55	2227,40
1115,98	2227,40
1116,40	2234,20
1116,82	2230,60
1117,24	2230,00
1117,66	2230,40
1118,08	2183,80
1118,50	2182,20
1118,91	2183,60
1119,33	2182,40
>>>>>End Processed Spectral Data<<<<<
