SpectraSuite Data File
++++++++++++++++++++++++++++++++++++
Date: Mon Aug 22 09:35:27 EEST 2011
User: OO Maya
Dark Spectrum Present: No
Reference Spectrum Present: No
Number of Sampled Component Spectra: 1
Spectrometers: MAYP11278
Integration Time (usec): 300000 (MAYP11278)
Spectra Averaged: 10 (MAYP11278)
Boxcar Smoothing: 0 (MAYP11278)
Correct for Electrical Dark: Yes (MAYP11278)
Strobe/Lamp Enabled: No (MAYP11278)
Correct for Detector Non-linearity: No (MAYP11278)
Correct for Stray Light: No (MAYP11278)
Number of Pixels in Processed Spectrum: 2068
>>>>>Begin Processed Spectral Data<<<<<
200,00	3248,50
200,47	-175,15
200,95	-176,85
201,42	-180,15
201,89	133,05
202,37	142,35
202,84	131,35
203,31	132,15
203,79	160,35
204,26	124,25
204,73	111,25
205,20	109,05
205,68	134,35
206,15	126,95
206,62	140,65
207,10	128,25
207,57	156,15
208,04	125,05
208,51	131,75
208,99	199,95
209,46	134,05
209,93	115,35
210,41	122,75
210,88	118,65
211,35	140,95
211,82	145,25
212,30	126,25
212,77	133,65
213,24	159,55
213,71	159,45
214,19	149,35
214,66	120,25
215,13	140,95
215,60	116,65
216,08	161,15
216,55	158,15
217,02	129,05
217,49	129,95
217,96	170,45
218,44	130,85
218,91	145,25
219,38	198,85
219,85	144,15
220,33	148,95
220,80	136,35
221,27	155,45
221,74	158,85
222,21	128,15
222,69	137,15
223,16	143,25
223,63	144,65
224,10	128,85
224,57	184,95
225,04	147,75
225,52	136,35
225,99	188,95
226,46	147,75
226,93	172,05
227,40	151,35
227,87	152,85
228,35	153,35
228,82	158,15
229,29	131,85
229,76	135,95
230,23	174,15
230,70	116,45
231,18	129,65
231,65	131,25
232,12	138,75
232,59	176,35
233,06	132,95
233,53	165,75
234,00	125,35
234,48	158,05
234,95	133,95
235,42	163,85
235,89	140,55
236,36	133,15
236,83	128,85
237,30	142,95
237,77	134,15
238,24	146,25
238,72	166,75
239,19	139,45
239,66	151,35
240,13	155,45
240,60	159,85
241,07	138,45
241,54	144,05
242,01	130,35
242,48	159,95
242,95	174,55
243,42	150,25
243,90	150,35
244,37	133,05
244,84	152,55
245,31	149,45
245,78	226,95
246,25	149,35
246,72	134,25
247,19	129,65
247,66	126,05
248,13	164,35
248,60	199,45
249,07	134,35
249,54	151,25
250,01	144,65
250,48	156,05
250,95	142,35
251,42	118,35
251,89	158,45
252,36	179,95
252,83	155,55
253,30	142,95
253,77	169,55
254,24	177,55
254,71	120,45
255,18	130,85
255,65	160,65
256,12	185,15
256,59	144,55
257,06	173,05
257,53	171,25
258,00	130,85
258,47	153,45
258,94	154,65
259,41	147,05
259,88	153,35
260,35	104,65
260,82	151,45
261,29	161,45
261,76	156,95
262,23	184,55
262,70	148,75
263,17	193,15
263,64	179,75
264,11	137,85
264,58	178,05
265,05	152,95
265,52	142,95
265,99	152,45
266,46	155,75
266,93	173,55
267,40	138,65
267,87	159,45
268,34	168,15
268,81	174,65
269,28	233,85
269,74	156,85
270,21	140,95
270,68	155,65
271,15	168,25
271,62	190,15
272,09	143,25
272,56	131,35
273,03	177,55
273,50	130,05
273,97	157,25
274,44	155,95
274,90	121,75
275,37	172,25
275,84	179,55
276,31	144,45
276,78	148,15
277,25	160,75
277,72	164,95
278,19	140,55
278,66	155,55
279,12	154,55
279,59	156,45
280,06	116,75
280,53	128,05
281,00	138,85
281,47	158,45
281,94	177,25
282,40	143,45
282,87	161,45
283,34	117,55
283,81	129,45
284,28	113,25
284,75	155,75
285,21	242,65
285,68	166,75
286,15	174,45
286,62	133,95
287,09	150,35
287,56	163,25
288,02	168,85
288,49	125,05
288,96	142,95
289,43	122,65
289,90	247,95
290,36	141,55
290,83	136,75
291,30	240,35
291,77	174,35
292,24	219,35
292,70	142,55
293,17	175,05
293,64	142,75
294,11	148,45
294,58	159,85
295,04	141,45
295,51	133,55
295,98	167,75
296,45	146,05
296,91	155,85
297,38	158,65
297,85	127,05
298,32	156,05
298,79	188,15
299,25	140,65
299,72	168,05
300,19	109,55
300,66	178,35
301,12	135,15
301,59	157,65
302,06	142,25
302,52	167,55
302,99	198,55
303,46	136,45
303,93	183,85
304,39	136,05
304,86	170,25
305,33	161,75
305,80	129,35
306,26	151,35
306,73	158,35
307,20	190,75
307,66	194,15
308,13	163,15
308,60	164,75
309,07	162,95
309,53	142,25
310,00	186,45
310,47	147,55
310,93	162,95
311,40	136,65
311,87	173,65
312,33	179,15
312,80	171,35
313,27	130,05
313,73	167,85
314,20	172,05
314,67	134,45
315,13	143,45
315,60	131,05
316,07	154,65
316,53	160,25
317,00	151,95
317,47	161,55
317,93	141,25
318,40	145,95
318,87	160,55
319,33	141,45
319,80	172,25
320,26	179,35
320,73	157,95
321,20	163,35
321,66	161,65
322,13	147,55
322,60	175,45
323,06	152,65
323,53	198,25
323,99	137,35
324,46	145,35
324,93	168,95
325,39	138,15
325,86	134,45
326,32	171,35
326,79	173,95
327,26	160,25
327,72	172,25
328,19	156,45
328,65	222,95
329,12	146,85
329,59	152,95
330,05	128,15
330,52	162,75
330,98	194,55
331,45	160,75
331,91	147,25
332,38	125,35
332,85	131,55
333,31	199,35
333,78	147,15
334,24	166,75
334,71	129,45
335,17	158,35
335,64	149,75
336,10	140,65
336,57	147,05
337,03	141,05
337,50	166,25
337,96	163,25
338,43	163,45
338,90	162,75
339,36	146,25
339,83	155,95
340,29	141,45
340,76	136,35
341,22	167,65
341,69	163,55
342,15	196,65
342,62	130,25
343,08	200,25
343,55	166,45
344,01	162,25
344,48	180,25
344,94	156,75
345,41	169,45
345,87	241,15
346,34	131,45
346,80	147,45
347,27	141,45
347,73	162,45
348,19	132,85
348,66	147,65
349,12	199,65
349,59	175,75
350,05	129,85
350,52	139,75
350,98	142,65
351,45	163,25
351,91	181,15
352,38	145,45
352,84	154,55
353,30	171,15
353,77	166,05
354,23	147,35
354,70	152,65
355,16	136,25
355,63	159,55
356,09	161,25
356,55	138,15
357,02	137,65
357,48	186,05
357,95	143,25
358,41	181,15
358,87	157,05
359,34	125,35
359,80	157,25
360,27	168,55
360,73	153,75
361,19	137,45
361,66	163,05
362,12	190,65
362,59	169,85
363,05	147,65
363,51	153,75
363,98	166,85
364,44	172,45
364,91	173,75
365,37	162,95
365,83	193,95
366,30	142,65
366,76	191,15
367,22	139,15
367,69	203,65
368,15	167,95
368,61	129,85
369,08	131,85
369,54	143,45
370,00	139,55
370,47	178,65
370,93	181,95
371,39	143,75
371,86	148,95
372,32	154,15
372,78	155,25
373,25	155,65
373,71	208,05
374,17	168,25
374,64	141,75
375,10	168,85
375,56	140,15
376,03	134,35
376,49	161,65
376,95	147,75
377,42	159,45
377,88	122,05
378,34	128,95
378,80	170,35
379,27	126,55
379,73	180,35
380,19	161,45
380,66	144,25
381,12	150,15
381,58	166,85
382,04	139,55
382,51	119,15
382,97	159,65
383,43	164,45
383,89	130,45
384,36	133,85
384,82	161,35
385,28	121,75
385,74	179,85
386,21	147,85
386,67	132,15
387,13	123,65
387,59	155,45
388,06	156,55
388,52	145,05
388,98	151,25
389,44	142,35
389,91	160,25
390,37	180,95
390,83	153,85
391,29	182,85
391,75	186,15
392,22	119,85
392,68	156,85
393,14	146,75
393,60	178,55
394,06	156,15
394,53	282,65
394,99	157,45
395,45	135,35
395,91	146,45
396,37	200,85
396,84	129,15
397,30	123,25
397,76	169,05
398,22	166,15
398,68	186,15
399,14	127,25
399,61	178,15
400,07	153,65
400,53	161,55
400,99	160,45
401,45	152,85
401,91	163,55
402,38	142,45
402,84	141,75
403,30	216,45
403,76	149,45
404,22	180,55
404,68	130,65
405,14	167,35
405,61	281,05
406,07	129,35
406,53	161,05
406,99	180,55
407,45	129,35
407,91	149,15
408,37	135,25
408,83	126,35
409,29	175,55
409,76	128,95
410,22	151,95
410,68	143,55
411,14	163,55
411,60	156,55
412,06	150,35
412,52	136,75
412,98	183,55
413,44	154,35
413,90	183,25
414,36	203,95
414,83	176,35
415,29	132,25
415,75	173,05
416,21	162,55
416,67	198,15
417,13	147,75
417,59	157,55
418,05	166,35
418,51	133,15
418,97	179,45
419,43	126,95
419,89	186,85
420,35	128,95
420,81	175,15
421,27	138,25
421,73	118,75
422,19	166,55
422,65	135,75
423,11	160,75
423,57	169,05
424,03	187,15
424,49	151,75
424,96	196,45
425,42	163,35
425,88	157,15
426,34	197,45
426,80	160,05
427,26	151,25
427,72	156,45
428,18	146,35
428,64	170,65
429,10	135,85
429,56	173,25
430,02	130,05
430,47	161,15
430,93	132,95
431,39	158,35
431,85	146,35
432,31	153,65
432,77	161,65
433,23	173,65
433,69	150,35
434,15	174,65
434,61	146,95
435,07	189,65
435,53	138,85
435,99	187,55
436,45	169,95
436,91	179,65
437,37	127,35
437,83	174,75
438,29	162,15
438,75	150,65
439,21	155,85
439,67	238,95
440,12	130,15
440,58	150,05
441,04	184,35
441,50	184,15
441,96	147,45
442,42	140,95
442,88	163,05
443,34	146,25
443,80	165,75
444,26	131,35
444,72	165,85
445,17	148,95
445,63	121,25
446,09	174,35
446,55	172,15
447,01	154,65
447,47	145,45
447,93	153,05
448,39	260,55
448,85	163,75
449,30	174,55
449,76	185,75
450,22	127,85
450,68	150,45
451,14	218,05
451,60	136,85
452,06	150,65
452,51	161,35
452,97	124,95
453,43	197,95
453,89	162,95
454,35	154,05
454,81	150,85
455,26	157,95
455,72	146,65
456,18	155,25
456,64	139,65
457,10	129,55
457,56	165,95
458,01	167,65
458,47	143,25
458,93	134,75
459,39	136,05
459,85	140,75
460,30	158,85
460,76	172,45
461,22	127,95
461,68	172,15
462,14	153,05
462,59	147,75
463,05	149,95
463,51	168,55
463,97	144,95
464,43	154,45
464,88	169,55
465,34	142,95
465,80	181,05
466,26	148,35
466,71	145,65
467,17	124,65
467,63	155,05
468,09	150,15
468,54	150,05
469,00	148,15
469,46	131,75
469,92	183,55
470,37	173,25
470,83	134,15
471,29	132,55
471,75	176,55
472,20	140,05
472,66	156,65
473,12	156,45
473,58	130,45
474,03	142,65
474,49	172,65
474,95	155,75
475,40	163,55
475,86	168,35
476,32	143,95
476,78	159,55
477,23	154,05
477,69	152,25
478,15	132,95
478,60	158,95
479,06	154,65
479,52	140,45
479,97	154,05
480,43	133,35
480,89	130,05
481,34	145,35
481,80	191,65
482,26	147,45
482,71	139,65
483,17	146,15
483,63	132,65
484,08	163,75
484,54	152,65
485,00	162,35
485,45	144,05
485,91	149,55
486,37	189,95
486,82	164,15
487,28	174,45
487,74	137,25
488,19	195,85
488,65	166,55
489,10	149,25
489,56	142,25
490,02	160,95
490,47	150,45
490,93	135,15
491,39	150,85
491,84	121,45
492,30	149,65
492,75	190,35
493,21	152,85
493,67	148,05
494,12	121,35
494,58	139,55
495,03	119,65
495,49	160,55
495,95	122,25
496,40	122,25
496,86	143,85
497,31	158,15
497,77	149,05
498,23	173,85
498,68	134,85
499,14	155,65
499,59	122,65
500,05	143,45
500,50	120,75
500,96	178,25
501,41	160,45
501,87	148,35
502,33	133,45
502,78	143,55
503,24	136,15
503,69	127,45
504,15	164,85
504,60	139,95
505,06	155,75
505,51	202,35
505,97	183,75
506,42	138,05
506,88	151,35
507,33	145,75
507,79	208,35
508,24	160,75
508,70	140,45
509,15	153,95
509,61	143,25
510,06	167,95
510,52	150,75
510,97	151,15
511,43	149,15
511,88	158,65
512,34	132,95
512,79	163,65
513,25	154,35
513,70	130,75
514,16	148,75
514,61	176,65
515,07	144,35
515,52	161,35
515,98	156,45
516,43	138,35
516,89	130,05
517,34	118,95
517,80	138,05
518,25	155,85
518,70	136,45
519,16	182,45
519,61	177,85
520,07	132,65
520,52	117,05
520,98	130,15
521,43	164,25
521,89	116,55
522,34	171,55
522,79	182,25
523,25	120,75
523,70	155,75
524,16	180,65
524,61	166,85
525,06	221,85
525,52	164,05
525,97	148,25
526,43	251,65
526,88	146,95
527,33	134,25
527,79	126,75
528,24	127,05
528,70	168,35
529,15	163,05
529,60	169,85
530,06	141,35
530,51	120,75
530,97	191,25
531,42	167,65
531,87	138,65
532,33	187,65
532,78	157,75
533,23	172,35
533,69	184,85
534,14	161,45
534,59	154,25
535,05	145,25
535,50	143,95
535,96	166,75
536,41	168,85
536,86	152,65
537,32	129,95
537,77	170,05
538,22	166,35
538,68	127,65
539,13	177,75
539,58	155,15
540,03	153,15
540,49	154,85
540,94	157,35
541,39	149,85
541,85	132,45
542,30	144,95
542,75	140,55
543,21	156,15
543,66	138,85
544,11	160,25
544,57	128,15
545,02	164,15
545,47	147,35
545,92	149,35
546,38	188,85
546,83	167,95
547,28	296,25
547,73	125,05
548,19	197,25
548,64	152,55
549,09	124,55
549,55	158,95
550,00	158,55
550,45	134,25
550,90	227,75
551,36	121,35
551,81	207,95
552,26	178,75
552,71	148,25
553,17	150,75
553,62	172,55
554,07	153,25
554,52	161,55
554,97	166,75
555,43	159,05
555,88	151,45
556,33	149,95
556,78	136,35
557,24	206,25
557,69	142,75
558,14	127,15
558,59	164,95
559,04	155,25
559,50	201,85
559,95	160,55
560,40	135,55
560,85	171,95
561,30	146,55
561,76	136,75
562,21	163,55
562,66	156,45
563,11	197,25
563,56	154,25
564,01	182,65
564,47	122,45
564,92	160,15
565,37	205,25
565,82	140,15
566,27	153,85
566,72	134,25
567,18	137,75
567,63	132,95
568,08	156,45
568,53	151,05
568,98	149,25
569,43	142,25
569,88	144,45
570,34	145,25
570,79	179,75
571,24	129,65
571,69	159,75
572,14	138,45
572,59	146,15
573,04	153,75
573,49	180,55
573,94	143,35
574,40	136,15
574,85	154,95
575,30	176,65
575,75	143,25
576,20	149,25
576,65	173,45
577,10	155,75
577,55	150,65
578,00	168,85
578,45	163,35
578,91	148,35
579,36	160,35
579,81	168,25
580,26	134,55
580,71	130,15
581,16	153,35
581,61	181,35
582,06	164,55
582,51	131,05
582,96	162,35
583,41	115,45
583,86	175,15
584,31	143,35
584,76	138,05
585,21	122,15
585,66	179,15
586,11	156,75
586,56	141,05
587,01	157,85
587,46	157,35
587,92	152,05
588,37	145,25
588,82	157,25
589,27	154,35
589,72	125,65
590,17	152,85
590,62	156,95
591,07	140,35
591,52	164,75
591,97	138,05
592,42	218,15
592,87	148,25
593,32	139,25
593,77	147,05
594,22	153,85
594,67	171,65
595,12	127,25
595,56	159,75
596,01	141,75
596,46	126,85
596,91	162,75
597,36	166,15
597,81	141,55
598,26	120,35
598,71	190,15
599,16	146,05
599,61	161,05
600,06	148,45
600,51	174,65
600,96	151,45
601,41	147,35
601,86	195,65
602,31	141,95
602,76	129,85
603,21	190,45
603,66	171,65
604,11	178,55
604,55	163,15
605,00	124,65
605,45	147,55
605,90	187,85
606,35	139,15
606,80	164,95
607,25	184,15
607,70	155,15
608,15	174,25
608,60	123,85
609,04	232,25
609,49	139,85
609,94	150,95
610,39	123,15
610,84	118,85
611,29	168,35
611,74	142,15
612,19	170,05
612,64	161,25
613,08	117,65
613,53	152,45
613,98	156,75
614,43	149,55
614,88	168,85
615,33	156,05
615,78	219,45
616,22	170,55
616,67	147,85
617,12	139,65
617,57	150,95
618,02	122,85
618,47	197,25
618,91	166,55
619,36	153,35
619,81	232,55
620,26	123,25
620,71	127,25
621,16	126,45
621,60	119,25
622,05	147,25
622,50	144,95
622,95	136,55
623,40	145,65
623,84	155,55
624,29	177,15
624,74	141,75
625,19	146,55
625,64	151,45
626,08	166,65
626,53	142,55
626,98	173,75
627,43	184,15
627,87	150,35
628,32	166,95
628,77	178,85
629,22	174,55
629,66	140,85
630,11	141,45
630,56	182,25
631,01	132,95
631,46	146,45
631,90	157,95
632,35	135,85
632,80	151,15
633,25	157,55
633,69	135,65
634,14	167,95
634,59	170,45
635,03	115,85
635,48	151,25
635,93	156,85
636,38	138,55
636,82	160,75
637,27	152,05
637,72	168,65
638,16	161,95
638,61	182,25
639,06	132,05
639,51	137,75
639,95	126,35
640,40	143,45
640,85	125,65
641,29	137,45
641,74	134,75
642,19	116,95
642,63	148,65
643,08	147,35
643,53	125,65
643,97	163,95
644,42	170,15
644,87	141,25
645,31	155,35
645,76	125,85
646,21	118,25
646,65	155,85
647,10	178,15
647,55	118,15
647,99	136,25
648,44	142,25
648,89	117,65
649,33	137,85
649,78	167,65
650,23	131,95
650,67	125,95
651,12	142,95
651,56	128,65
652,01	152,65
652,46	150,15
652,90	162,55
653,35	177,15
653,80	152,45
654,24	154,05
654,69	120,25
655,13	181,05
655,58	151,95
656,03	258,35
656,47	133,05
656,92	129,75
657,36	134,75
657,81	150,35
658,26	124,65
658,70	147,75
659,15	135,85
659,59	130,85
660,04	151,55
660,48	155,55
660,93	139,25
661,38	116,75
661,82	172,15
662,27	128,85
662,71	147,35
663,16	158,75
663,60	159,45
664,05	136,35
664,49	153,05
664,94	127,85
665,38	263,15
665,83	136,75
666,28	174,25
666,72	149,35
667,17	131,55
667,61	143,75
668,06	125,45
668,50	107,95
668,95	164,65
669,39	135,65
669,84	136,35
670,28	142,15
670,73	131,85
671,17	150,85
671,62	125,35
672,06	156,75
672,51	161,75
672,95	218,05
673,40	180,65
673,84	133,75
674,29	150,85
674,73	135,05
675,18	208,15
675,62	107,45
676,07	124,75
676,51	176,05
676,95	142,25
677,40	188,55
677,84	202,65
678,29	151,45
678,73	151,65
679,18	181,95
679,62	241,45
680,07	160,25
680,51	160,95
680,96	118,35
681,40	123,15
681,84	151,35
682,29	144,65
682,73	146,85
683,18	140,25
683,62	224,75
684,07	131,05
684,51	138,45
684,95	151,65
685,40	132,75
685,84	150,45
686,29	150,25
686,73	108,95
687,17	103,05
687,62	136,85
688,06	147,85
688,51	164,65
688,95	159,95
689,39	155,85
689,84	180,15
690,28	152,65
690,73	154,45
691,17	154,05
691,61	142,35
692,06	128,75
692,50	153,85
692,94	137,85
693,39	151,65
693,83	140,25
694,27	224,95
694,72	165,45
695,16	124,25
695,60	138,45
696,05	139,25
696,49	113,75
696,94	141,35
697,38	115,95
697,82	141,55
698,27	140,75
698,71	164,75
699,15	161,15
699,59	142,85
700,04	152,15
700,48	267,25
700,92	155,25
701,37	154,05
701,81	198,95
702,25	143,75
702,70	136,45
703,14	154,55
703,58	131,15
704,03	163,35
704,47	162,45
704,91	126,65
705,35	136,15
705,80	165,15
706,24	170,15
706,68	259,35
707,13	123,95
707,57	179,15
708,01	132,05
708,45	134,75
708,90	151,25
709,34	141,75
709,78	131,65
710,22	181,25
710,67	169,95
711,11	172,75
711,55	121,35
711,99	164,95
712,44	146,25
712,88	144,55
713,32	156,65
713,76	173,25
714,21	152,55
714,65	136,35
715,09	146,35
715,53	148,95
715,97	135,45
716,42	162,35
716,86	148,85
717,30	141,35
717,74	128,05
718,18	202,55
718,63	145,55
719,07	154,95
719,51	187,65
719,95	172,55
720,39	143,25
720,84	151,05
721,28	136,35
721,72	141,25
722,16	122,65
722,60	110,75
723,04	163,25
723,49	191,75
723,93	125,75
724,37	117,65
724,81	145,95
725,25	138,85
725,69	132,05
726,14	153,95
726,58	135,55
727,02	155,45
727,46	144,15
727,90	118,85
728,34	117,65
728,78	154,65
729,23	112,55
729,67	158,85
730,11	120,65
730,55	135,45
730,99	135,95
731,43	146,75
731,87	198,85
732,31	126,45
732,76	183,25
733,20	156,65
733,64	140,45
734,08	177,95
734,52	130,75
734,96	162,45
735,40	117,65
735,84	151,05
736,28	163,05
736,72	148,25
737,16	149,55
737,61	122,95
738,05	157,85
738,49	161,15
738,93	127,45
739,37	162,25
739,81	160,45
740,25	148,75
740,69	224,95
741,13	129,15
741,57	149,25
742,01	170,75
742,45	166,65
742,89	140,15
743,33	130,55
743,77	147,45
744,21	111,95
744,65	175,45
745,09	158,25
745,53	125,75
745,98	155,45
746,42	165,35
746,86	143,15
747,30	148,05
747,74	125,35
748,18	126,15
748,62	144,85
749,06	170,65
749,50	163,95
749,94	149,15
750,38	172,35
750,82	184,75
751,26	104,75
751,70	118,75
752,14	116,05
752,58	156,75
753,02	146,55
753,45	131,65
753,89	157,35
754,33	227,15
754,77	152,35
755,21	143,55
755,65	120,45
756,09	140,65
756,53	140,35
756,97	141,25
757,41	196,65
757,85	132,95
758,29	137,05
758,73	117,85
759,17	140,65
759,61	124,05
760,05	131,95
760,49	149,65
760,93	179,15
761,37	129,85
761,80	174,25
762,24	140,45
762,68	135,25
763,12	141,65
763,56	141,75
764,00	127,85
764,44	131,25
764,88	160,85
765,32	145,25
765,76	158,95
766,20	178,85
766,63	149,95
767,07	116,85
767,51	139,15
767,95	166,05
768,39	144,85
768,83	119,25
769,27	130,95
769,71	156,85
770,14	123,35
770,58	125,05
771,02	131,15
771,46	141,25
771,90	148,35
772,34	151,85
772,78	165,75
773,21	148,55
773,65	197,85
774,09	127,95
774,53	149,75
774,97	128,85
775,41	118,45
775,84	162,95
776,28	145,15
776,72	154,25
777,16	120,25
777,60	138,55
778,04	142,35
778,47	106,65
778,91	140,35
779,35	129,45
779,79	157,75
780,23	149,55
780,66	117,75
781,10	133,85
781,54	138,85
781,98	157,35
782,42	168,45
782,85	134,85
783,29	152,55
783,73	215,85
784,17	183,25
784,61	144,95
785,04	163,45
785,48	157,05
785,92	132,95
786,36	150,05
786,79	121,95
787,23	138,15
787,67	165,15
788,11	170,45
788,54	144,35
788,98	140,05
789,42	143,95
789,86	123,65
790,29	162,95
790,73	171,65
791,17	176,35
791,60	127,25
792,04	129,05
792,48	152,25
792,92	127,35
793,35	133,05
793,79	128,45
794,23	134,85
794,67	123,95
795,10	133,75
795,54	176,65
795,98	142,55
796,41	143,55
796,85	136,05
797,29	257,15
797,72	178,75
798,16	145,15
798,60	161,25
799,03	140,05
799,47	129,65
799,91	158,05
800,34	142,65
800,78	152,15
801,22	130,65
801,65	124,15
802,09	138,15
802,53	183,05
802,96	151,35
803,40	123,15
803,84	187,85
804,27	154,15
804,71	126,55
805,15	151,85
805,58	145,75
806,02	130,35
806,46	177,75
806,89	185,55
807,33	163,45
807,76	155,45
808,20	136,55
808,64	129,25
809,07	200,45
809,51	210,75
809,95	197,75
810,38	168,65
810,82	212,95
811,25	124,75
811,69	142,75
812,13	123,25
812,56	158,35
813,00	146,15
813,43	132,55
813,87	121,35
814,30	153,35
814,74	181,75
815,18	242,95
815,61	139,15
816,05	132,85
816,48	160,55
816,92	205,65
817,35	169,85
817,79	150,35
818,23	160,45
818,66	154,55
819,10	155,05
819,53	129,75
819,97	131,75
820,40	136,65
820,84	161,75
821,27	143,05
821,71	171,85
822,14	142,75
822,58	170,65
823,01	176,05
823,45	133,15
823,88	155,85
824,32	137,85
824,75	147,55
825,19	132,35
825,63	186,25
826,06	123,35
826,50	150,25
826,93	151,15
827,37	128,35
827,80	142,25
828,23	145,15
828,67	148,45
829,10	160,05
829,54	123,85
829,97	142,25
830,41	103,05
830,84	145,65
831,28	158,55
831,71	177,65
832,15	133,35
832,58	169,35
833,02	153,85
833,45	136,15
833,89	191,25
834,32	142,65
834,75	209,65
835,19	173,75
835,62	163,65
836,06	116,15
836,49	143,15
836,93	136,15
837,36	166,65
837,79	167,35
838,23	143,55
838,66	133,65
839,10	176,75
839,53	142,65
839,97	157,65
840,40	146,55
840,83	171,95
841,27	134,75
841,70	129,05
842,14	154,75
842,57	145,15
843,00	192,05
843,44	212,85
843,87	146,45
844,31	177,55
844,74	111,35
845,17	129,75
845,61	124,35
846,04	137,85
846,47	165,65
846,91	146,95
847,34	161,65
847,77	153,75
848,21	129,95
848,64	156,55
849,08	136,25
849,51	171,85
849,94	135,45
850,38	133,45
850,81	149,05
851,24	132,95
851,68	134,25
852,11	136,15
852,54	163,65
852,98	177,55
853,41	163,65
853,84	139,45
854,28	177,05
854,71	125,45
855,14	159,85
855,57	180,95
856,01	135,15
856,44	131,45
856,87	160,95
857,31	117,15
857,74	161,65
858,17	122,75
858,61	133,25
859,04	171,65
859,47	194,15
859,90	144,15
860,34	159,95
860,77	145,95
861,20	125,65
861,63	180,45
862,07	110,35
862,50	128,45
862,93	141,75
863,37	146,25
863,80	147,45
864,23	162,85
864,66	132,65
865,10	138,75
865,53	165,25
865,96	129,55
866,39	134,85
866,82	154,25
867,26	132,05
867,69	142,65
868,12	137,45
868,55	119,05
868,99	146,35
869,42	111,65
869,85	166,45
870,28	124,65
870,71	153,75
871,15	142,25
871,58	131,45
872,01	153,45
872,44	144,45
872,87	180,95
873,31	222,95
873,74	125,95
874,17	148,55
874,60	150,15
875,03	131,95
875,47	156,35
875,90	159,95
876,33	144,45
876,76	171,15
877,19	157,75
877,62	133,65
878,06	125,75
878,49	176,65
878,92	109,75
879,35	158,55
879,78	146,65
880,21	143,65
880,64	152,85
881,08	141,35
881,51	158,35
881,94	139,15
882,37	193,55
882,80	130,65
883,23	127,15
883,66	139,75
884,09	143,05
884,53	164,05
884,96	137,95
885,39	141,45
885,82	145,45
886,25	136,65
886,68	124,75
887,11	163,35
887,54	149,65
887,97	163,55
888,40	162,85
888,84	135,25
889,27	132,05
889,70	193,25
890,13	121,95
890,56	131,95
890,99	146,25
891,42	135,85
891,85	237,15
892,28	124,45
892,71	166,75
893,14	135,95
893,57	157,95
894,00	160,65
894,43	121,35
894,86	131,05
895,29	135,05
895,73	119,15
896,16	133,35
896,59	150,75
897,02	136,15
897,45	156,25
897,88	134,65
898,31	123,05
898,74	152,15
899,17	161,55
899,60	134,45
900,03	126,15
900,46	121,35
900,89	141,65
901,32	180,85
901,75	119,95
902,18	122,65
902,61	126,45
903,04	164,75
903,47	153,55
903,90	133,75
904,33	194,25
904,76	199,75
905,19	131,35
905,62	136,95
906,05	190,45
906,48	127,35
906,91	156,85
907,34	136,45
907,76	138,75
908,19	114,25
908,62	176,45
909,05	151,35
909,48	166,95
909,91	160,75
910,34	134,95
910,77	154,25
911,20	188,95
911,63	138,25
912,06	117,65
912,49	144,05
912,92	146,05
913,35	134,05
913,78	129,35
914,21	140,15
914,63	144,65
915,06	136,85
915,49	151,35
915,92	149,45
916,35	147,25
916,78	116,75
917,21	115,55
917,64	134,65
918,07	129,25
918,50	163,05
918,92	133,45
919,35	170,85
919,78	130,75
920,21	158,95
920,64	122,85
921,07	140,25
921,50	141,65
921,93	162,85
922,35	170,05
922,78	140,65
923,21	180,45
923,64	158,25
924,07	132,35
924,50	123,85
924,92	117,05
925,35	146,15
925,78	182,05
926,21	163,35
926,64	112,65
927,07	162,35
927,49	122,95
927,92	163,95
928,35	200,65
928,78	131,35
929,21	152,55
929,64	118,45
930,06	203,65
930,49	136,05
930,92	121,85
931,35	168,15
931,78	144,95
932,20	152,45
932,63	159,95
933,06	128,45
933,49	154,05
933,92	113,45
934,34	187,05
934,77	173,35
935,20	219,75
935,63	137,85
936,05	173,55
936,48	159,15
936,91	163,75
937,34	155,65
937,76	116,35
938,19	140,15
938,62	124,05
939,05	157,05
939,47	127,75
939,90	157,05
940,33	124,45
940,76	136,85
941,18	163,15
941,61	125,55
942,04	148,55
942,47	162,85
942,89	196,95
943,32	133,25
943,75	167,65
944,17	129,75
944,60	130,95
945,03	163,55
945,46	121,55
945,88	112,45
946,31	157,55
946,74	132,45
947,16	160,05
947,59	139,75
948,02	146,35
948,44	151,05
948,87	171,85
949,30	137,95
949,72	148,55
950,15	155,85
950,58	118,05
951,00	121,45
951,43	126,55
951,86	208,35
952,28	178,55
952,71	141,15
953,14	135,35
953,56	159,95
953,99	116,25
954,42	162,35
954,84	140,05
955,27	190,15
955,70	123,95
956,12	134,55
956,55	138,15
956,98	133,35
957,40	132,95
957,83	156,95
958,25	125,15
958,68	155,45
959,11	228,75
959,53	121,35
959,96	150,85
960,38	155,05
960,81	129,55
961,24	128,85
961,66	134,35
962,09	107,05
962,51	136,55
962,94	160,65
963,37	154,25
963,79	167,45
964,22	161,85
964,64	135,85
965,07	138,55
965,49	137,05
965,92	144,75
966,35	144,65
966,77	124,95
967,20	169,45
967,62	137,05
968,05	139,15
968,47	160,55
968,90	130,05
969,32	130,45
969,75	168,15
970,17	261,65
970,60	158,25
971,03	135,75
971,45	158,25
971,88	130,75
972,30	132,25
972,73	148,05
973,15	134,65
973,58	142,65
974,00	116,35
974,43	120,05
974,85	141,45
975,28	155,55
975,70	138,25
976,13	156,75
976,55	148,45
976,98	126,85
977,40	132,15
977,83	128,15
978,25	151,45
978,68	121,25
979,10	160,15
979,53	141,65
979,95	137,55
980,37	130,25
980,80	127,15
981,22	171,55
981,65	156,55
982,07	128,15
982,50	153,65
982,92	167,95
983,35	135,15
983,77	143,25
984,20	127,15
984,62	138,85
985,04	129,05
985,47	169,15
985,89	158,15
986,32	129,75
986,74	104,75
987,17	138,65
987,59	158,15
988,01	134,05
988,44	126,45
988,86	147,95
989,29	141,35
989,71	142,15
990,13	140,95
990,56	148,45
990,98	141,05
991,41	137,95
991,83	152,25
992,25	147,75
992,68	144,55
993,10	191,05
993,53	138,05
993,95	121,05
994,37	145,75
994,80	125,75
995,22	135,95
995,64	159,25
996,07	159,95
996,49	134,95
996,91	144,25
997,34	117,05
997,76	113,15
998,18	106,25
998,61	171,85
999,03	168,05
999,45	133,45
999,88	152,45
1000,30	126,15
1000,72	186,65
1001,15	145,65
1001,57	141,85
1001,99	174,35
1002,42	127,65
1002,84	144,35
1003,26	156,25
1003,69	142,15
1004,11	149,35
1004,53	143,05
1004,96	155,25
1005,38	116,25
1005,80	152,35
1006,22	147,85
1006,65	180,75
1007,07	138,15
1007,49	114,15
1007,92	153,65
1008,34	145,85
1008,76	131,05
1009,18	109,85
1009,61	141,35
1010,03	126,75
1010,45	245,75
1010,87	169,55
1011,30	166,35
1011,72	151,95
1012,14	158,25
1012,56	171,05
1012,99	145,75
1013,41	163,35
1013,83	150,15
1014,25	150,35
1014,68	150,95
1015,10	122,05
1015,52	176,95
1015,94	116,25
1016,37	164,65
1016,79	133,75
1017,21	144,85
1017,63	125,85
1018,05	156,65
1018,48	135,85
1018,90	131,45
1019,32	141,15
1019,74	105,15
1020,16	220,75
1020,59	173,55
1021,01	157,75
1021,43	131,65
1021,85	138,25
1022,27	141,65
1022,69	151,65
1023,12	153,05
1023,54	135,15
1023,96	241,25
1024,38	171,95
1024,80	166,25
1025,22	153,25
1025,65	152,45
1026,07	157,15
1026,49	158,25
1026,91	127,15
1027,33	124,35
1027,75	197,45
1028,17	152,85
1028,60	156,05
1029,02	137,25
1029,44	151,45
1029,86	130,25
1030,28	204,65
1030,70	151,25
1031,12	134,45
1031,54	155,45
1031,97	180,55
1032,39	125,95
1032,81	150,45
1033,23	170,15
1033,65	136,75
1034,07	170,25
1034,49	126,25
1034,91	125,75
1035,33	147,75
1035,75	170,45
1036,18	135,25
1036,60	191,95
1037,02	130,05
1037,44	136,05
1037,86	155,05
1038,28	107,75
1038,70	161,25
1039,12	163,85
1039,54	163,15
1039,96	179,55
1040,38	188,55
1040,80	141,95
1041,22	142,65
1041,64	157,25
1042,06	135,35
1042,48	181,95
1042,90	171,45
1043,32	167,85
1043,74	159,25
1044,17	143,25
1044,59	167,55
1045,01	125,65
1045,43	144,95
1045,85	134,65
1046,27	125,75
1046,69	147,45
1047,11	162,65
1047,53	125,65
1047,95	156,35
1048,37	166,05
1048,79	130,15
1049,21	165,95
1049,63	165,15
1050,05	167,75
1050,47	132,05
1050,89	136,05
1051,31	160,25
1051,72	161,65
1052,14	175,05
1052,56	167,85
1052,98	140,15
1053,40	163,25
1053,82	103,55
1054,24	144,35
1054,66	110,95
1055,08	138,75
1055,50	135,35
1055,92	158,45
1056,34	161,55
1056,76	196,55
1057,18	173,05
1057,60	177,95
1058,02	149,75
1058,44	257,05
1058,86	126,45
1059,28	164,05
1059,69	158,45
1060,11	145,05
1060,53	138,25
1060,95	143,15
1061,37	171,65
1061,79	150,05
1062,21	135,15
1062,63	171,85
1063,05	186,95
1063,47	157,05
1063,88	145,55
1064,30	127,85
1064,72	172,75
1065,14	171,65
1065,56	139,25
1065,98	128,15
1066,40	118,75
1066,82	167,85
1067,23	147,45
1067,65	145,75
1068,07	152,95
1068,49	139,95
1068,91	188,15
1069,33	153,25
1069,75	138,95
1070,16	125,65
1070,58	167,15
1071,00	168,05
1071,42	164,95
1071,84	137,65
1072,26	168,15
1072,67	135,05
1073,09	124,85
1073,51	120,35
1073,93	163,85
1074,35	133,75
1074,77	118,35
1075,18	139,95
1075,60	126,85
1076,02	145,35
1076,44	132,35
1076,86	126,55
1077,27	147,05
1077,69	166,45
1078,11	138,95
1078,53	167,15
1078,94	190,55
1079,36	102,35
1079,78	151,55
1080,20	138,65
1080,62	145,95
1081,03	160,15
1081,45	143,35
1081,87	135,45
1082,29	156,25
1082,70	143,25
1083,12	140,45
1083,54	145,35
1083,96	151,75
1084,37	173,55
1084,79	145,75
1085,21	132,65
1085,63	174,55
1086,04	126,55
1086,46	137,05
1086,88	149,15
1087,30	117,25
1087,71	160,35
1088,13	1388,45
1088,55	134,35
1088,96	133,95
1089,38	130,65
1089,80	135,15
1090,22	175,25
1090,63	137,45
1091,05	122,85
1091,47	151,05
1091,88	139,85
1092,30	131,15
1092,72	142,35
1093,13	133,25
1093,55	145,85
1093,97	141,25
1094,38	153,95
1094,80	134,15
1095,22	143,55
1095,63	130,95
1096,05	135,45
1096,47	159,45
1096,88	120,05
1097,30	153,75
1097,72	129,05
1098,13	154,15
1098,55	148,15
1098,97	167,45
1099,38	145,05
1099,80	135,05
1100,21	125,55
1100,63	137,25
1101,05	132,55
1101,46	141,15
1101,88	119,65
1102,30	130,55
1102,71	137,45
1103,13	143,55
1103,54	146,15
1103,96	135,05
1104,38	182,45
1104,79	99,15
1105,21	142,45
1105,62	148,15
1106,04	127,15
1106,46	136,05
1106,87	107,75
1107,29	112,45
1107,70	164,65
1108,12	104,65
1108,54	152,75
1108,95	151,25
1109,37	148,85
1109,78	101,65
1110,20	129,55
1110,61	108,75
1111,03	108,75
1111,44	108,75
1111,86	108,75
1112,28	108,75
1112,69	108,75
1113,11	108,75
1113,52	108,75
1113,94	108,75
1114,35	108,75
1114,77	108,75
1115,18	108,75
1115,60	108,75
1116,01	108,75
1116,43	108,75
1116,84	108,75
1117,26	108,75
1117,67	108,75
1118,09	108,75
1118,50	108,75
1118,92	108,75
>>>>>End Processed Spectral Data<<<<<
