SpectraSuite Data File
++++++++++++++++++++++++++++++++++++
Date: Mon Aug 22 09:38:15 EEST 2011
User: OO Maya
Dark Spectrum Present: No
Reference Spectrum Present: No
Number of Sampled Component Spectra: 1
Spectrometers: MAYP11278
Integration Time (usec): 300000 (MAYP11278)
Spectra Averaged: 10 (MAYP11278)
Boxcar Smoothing: 0 (MAYP11278)
Correct for Electrical Dark: Yes (MAYP11278)
Strobe/Lamp Enabled: No (MAYP11278)
Correct for Detector Non-linearity: No (MAYP11278)
Correct for Stray Light: No (MAYP11278)
Number of Pixels in Processed Spectrum: 2068
>>>>>Begin Processed Spectral Data<<<<<
200,00	3254,50
200,47	-190,16
200,95	-188,06
201,42	-192,26
201,89	139,34
202,37	137,44
202,84	129,94
203,31	128,24
203,79	158,54
204,26	126,14
204,73	121,44
205,20	115,34
205,68	125,14
206,15	121,24
206,62	147,84
207,10	128,14
207,57	160,54
208,04	128,24
208,51	134,74
208,99	195,04
209,46	129,44
209,93	118,54
210,41	123,74
210,88	119,84
211,35	143,44
211,82	149,64
212,30	131,84
212,77	140,34
213,24	155,74
213,71	153,64
214,19	155,94
214,66	113,74
215,13	144,44
215,60	121,04
216,08	151,74
216,55	167,24
217,02	126,44
217,49	121,04
217,96	165,74
218,44	129,24
218,91	152,54
219,38	201,04
219,85	150,94
220,33	150,44
220,80	139,14
221,27	157,44
221,74	158,14
222,21	139,84
222,69	143,94
223,16	152,94
223,63	150,04
224,10	131,54
224,57	188,84
225,04	157,24
225,52	129,44
225,99	198,24
226,46	145,84
226,93	175,54
227,40	150,84
227,87	160,64
228,35	158,34
228,82	149,74
229,29	134,84
229,76	140,54
230,23	172,44
230,70	112,04
231,18	128,64
231,65	136,84
232,12	139,34
232,59	175,34
233,06	138,44
233,53	162,64
234,00	129,34
234,48	163,44
234,95	135,54
235,42	171,64
235,89	142,04
236,36	134,54
236,83	130,34
237,30	140,64
237,77	129,84
238,24	147,14
238,72	169,54
239,19	147,14
239,66	156,94
240,13	161,14
240,60	159,14
241,07	140,54
241,54	139,14
242,01	138,74
242,48	169,04
242,95	175,14
243,42	146,54
243,90	149,94
244,37	128,94
244,84	146,64
245,31	156,94
245,78	230,44
246,25	146,14
246,72	130,74
247,19	133,44
247,66	124,64
248,13	164,84
248,60	197,14
249,07	131,04
249,54	149,34
250,01	148,94
250,48	154,14
250,95	149,44
251,42	118,14
251,89	156,44
252,36	181,24
252,83	155,14
253,30	143,94
253,77	174,74
254,24	171,54
254,71	121,44
255,18	127,64
255,65	168,24
256,12	181,34
256,59	138,64
257,06	174,14
257,53	172,14
258,00	131,34
258,47	143,94
258,94	144,34
259,41	150,24
259,88	156,24
260,35	114,44
260,82	154,24
261,29	168,74
261,76	154,74
262,23	177,84
262,70	152,64
263,17	189,04
263,64	179,64
264,11	135,84
264,58	173,14
265,05	156,84
265,52	140,24
265,99	157,14
266,46	159,54
266,93	169,44
267,40	143,64
267,87	160,54
268,34	161,74
268,81	172,54
269,28	228,54
269,74	152,14
270,21	135,54
270,68	157,04
271,15	174,74
271,62	190,54
272,09	148,54
272,56	134,44
273,03	177,94
273,50	129,34
273,97	154,84
274,44	150,64
274,90	129,54
275,37	170,94
275,84	180,44
276,31	142,74
276,78	156,04
277,25	159,34
277,72	171,94
278,19	143,74
278,66	146,14
279,12	150,14
279,59	161,24
280,06	114,64
280,53	129,04
281,00	143,14
281,47	169,94
281,94	182,04
282,40	146,04
282,87	156,94
283,34	126,44
283,81	124,24
284,28	109,34
284,75	153,54
285,21	245,44
285,68	174,94
286,15	174,54
286,62	132,44
287,09	140,84
287,56	160,94
288,02	167,94
288,49	122,14
288,96	144,44
289,43	131,64
289,90	252,34
290,36	139,54
290,83	139,24
291,30	253,44
291,77	169,54
292,24	222,44
292,70	143,24
293,17	174,44
293,64	150,34
294,11	145,54
294,58	158,04
295,04	141,94
295,51	130,94
295,98	162,44
296,45	145,74
296,91	160,44
297,38	159,94
297,85	123,54
298,32	155,04
298,79	193,94
299,25	141,34
299,72	172,44
300,19	104,94
300,66	186,14
301,12	133,34
301,59	156,54
302,06	137,34
302,52	172,34
302,99	212,34
303,46	133,44
303,93	185,04
304,39	135,84
304,86	165,04
305,33	155,34
305,80	134,84
306,26	164,94
306,73	162,54
307,20	194,54
307,66	190,14
308,13	165,74
308,60	162,64
309,07	163,94
309,53	143,64
310,00	189,34
310,47	146,14
310,93	162,64
311,40	137,54
311,87	180,44
312,33	174,94
312,80	168,44
313,27	131,94
313,73	173,04
314,20	175,84
314,67	136,04
315,13	145,44
315,60	136,64
316,07	151,94
316,53	156,84
317,00	161,34
317,47	157,14
317,93	141,24
318,40	135,74
318,87	157,94
319,33	146,74
319,80	174,64
320,26	169,74
320,73	164,64
321,20	159,64
321,66	170,94
322,13	144,84
322,60	176,44
323,06	152,54
323,53	202,54
323,99	130,64
324,46	146,34
324,93	161,34
325,39	142,64
325,86	135,84
326,32	168,44
326,79	170,14
327,26	163,14
327,72	167,34
328,19	154,84
328,65	234,64
329,12	157,04
329,59	143,64
330,05	126,04
330,52	164,84
330,98	194,24
331,45	171,44
331,91	158,14
332,38	121,04
332,85	129,74
333,31	202,84
333,78	148,44
334,24	164,84
334,71	127,14
335,17	165,34
335,64	150,04
336,10	145,34
336,57	151,44
337,03	143,64
337,50	154,44
337,96	167,04
338,43	166,04
338,90	165,84
339,36	148,64
339,83	152,04
340,29	142,14
340,76	131,24
341,22	169,34
341,69	164,24
342,15	206,64
342,62	133,74
343,08	196,94
343,55	168,94
344,01	166,14
344,48	181,04
344,94	156,54
345,41	161,04
345,87	245,84
346,34	128,94
346,80	152,44
347,27	136,44
347,73	158,94
348,19	142,44
348,66	145,14
349,12	196,44
349,59	170,44
350,05	135,44
350,52	142,44
350,98	141,04
351,45	163,64
351,91	179,04
352,38	146,94
352,84	158,54
353,30	170,64
353,77	158,94
354,23	150,14
354,70	157,74
355,16	135,04
355,63	151,24
356,09	169,24
356,55	143,44
357,02	136,34
357,48	186,84
357,95	142,14
358,41	182,14
358,87	159,34
359,34	123,84
359,80	157,54
360,27	171,94
360,73	157,24
361,19	127,84
361,66	163,14
362,12	192,04
362,59	171,74
363,05	147,84
363,51	154,34
363,98	170,44
364,44	169,34
364,91	170,84
365,37	163,64
365,83	197,34
366,30	136,64
366,76	194,04
367,22	135,24
367,69	213,94
368,15	173,54
368,61	125,74
369,08	140,34
369,54	138,24
370,00	142,14
370,47	176,44
370,93	188,64
371,39	146,04
371,86	154,34
372,32	150,54
372,78	146,64
373,25	157,34
373,71	213,64
374,17	170,34
374,64	136,34
375,10	168,24
375,56	136,94
376,03	130,54
376,49	159,14
376,95	145,14
377,42	153,64
377,88	122,74
378,34	124,84
378,80	176,94
379,27	125,64
379,73	172,44
380,19	161,84
380,66	145,34
381,12	144,54
381,58	163,74
382,04	138,74
382,51	116,04
382,97	152,94
383,43	159,34
383,89	126,74
384,36	133,94
384,82	161,94
385,28	115,54
385,74	185,44
386,21	144,24
386,67	134,64
387,13	125,04
387,59	159,64
388,06	147,74
388,52	144,64
388,98	149,94
389,44	139,84
389,91	165,54
390,37	187,64
390,83	152,74
391,29	187,24
391,75	188,44
392,22	117,24
392,68	160,74
393,14	148,44
393,60	174,64
394,06	164,44
394,53	286,04
394,99	156,84
395,45	140,94
395,91	145,64
396,37	198,74
396,84	122,54
397,30	124,14
397,76	174,34
398,22	161,24
398,68	181,04
399,14	138,74
399,61	174,34
400,07	158,74
400,53	162,54
400,99	171,74
401,45	158,74
401,91	160,64
402,38	142,44
402,84	142,74
403,30	216,44
403,76	154,24
404,22	179,94
404,68	131,54
405,14	167,34
405,61	278,54
406,07	131,54
406,53	168,24
406,99	176,04
407,45	125,44
407,91	144,74
408,37	142,94
408,83	128,34
409,29	179,94
409,76	130,04
410,22	146,34
410,68	143,44
411,14	160,64
411,60	162,24
412,06	159,14
412,52	134,74
412,98	185,14
413,44	165,44
413,90	185,54
414,36	196,04
414,83	179,94
415,29	126,24
415,75	172,84
416,21	161,84
416,67	202,14
417,13	156,14
417,59	160,64
418,05	172,74
418,51	125,04
418,97	185,64
419,43	125,24
419,89	186,04
420,35	134,54
420,81	185,64
421,27	130,84
421,73	123,34
422,19	159,24
422,65	136,74
423,11	163,04
423,57	168,94
424,03	185,54
424,49	154,44
424,96	193,84
425,42	163,04
425,88	158,24
426,34	202,14
426,80	169,14
427,26	152,94
427,72	157,44
428,18	150,44
428,64	174,24
429,10	135,14
429,56	176,14
430,02	137,04
430,47	151,74
430,93	145,84
431,39	156,94
431,85	139,44
432,31	156,44
432,77	160,04
433,23	174,74
433,69	148,34
434,15	175,94
434,61	147,54
435,07	188,54
435,53	144,84
435,99	179,64
436,45	168,64
436,91	180,94
437,37	130,04
437,83	180,34
438,29	167,24
438,75	156,74
439,21	159,84
439,67	236,24
440,12	137,54
440,58	145,44
441,04	186,84
441,50	188,24
441,96	156,44
442,42	143,44
442,88	165,34
443,34	148,14
443,80	169,04
444,26	130,14
444,72	172,04
445,17	159,84
445,63	125,24
446,09	178,64
446,55	165,24
447,01	162,94
447,47	143,44
447,93	145,04
448,39	265,24
448,85	173,64
449,30	175,04
449,76	185,44
450,22	133,34
450,68	153,24
451,14	215,34
451,60	138,84
452,06	164,84
452,51	162,74
452,97	130,54
453,43	196,84
453,89	169,44
454,35	156,44
454,81	155,14
455,26	162,54
455,72	148,44
456,18	156,04
456,64	143,54
457,10	141,54
457,56	173,94
458,01	161,24
458,47	151,94
458,93	136,74
459,39	145,54
459,85	136,24
460,30	163,74
460,76	168,34
461,22	134,14
461,68	184,04
462,14	146,14
462,59	153,94
463,05	154,24
463,51	173,64
463,97	152,34
464,43	161,54
464,88	174,94
465,34	137,84
465,80	187,34
466,26	144,24
466,71	154,04
467,17	135,84
467,63	158,84
468,09	153,74
468,54	162,04
469,00	145,24
469,46	133,44
469,92	188,94
470,37	180,24
470,83	141,64
471,29	123,84
471,75	183,74
472,20	148,74
472,66	155,64
473,12	156,24
473,58	133,14
474,03	142,54
474,49	175,24
474,95	155,14
475,40	168,54
475,86	166,64
476,32	143,44
476,78	154,54
477,23	167,24
477,69	163,64
478,15	138,64
478,60	164,64
479,06	158,24
479,52	138,14
479,97	156,54
480,43	137,84
480,89	136,94
481,34	153,34
481,80	187,64
482,26	154,24
482,71	140,44
483,17	142,84
483,63	132,34
484,08	170,04
484,54	149,84
485,00	163,04
485,45	147,14
485,91	153,24
486,37	193,84
486,82	162,94
487,28	184,84
487,74	136,94
488,19	196,84
488,65	171,94
489,10	148,94
489,56	148,34
490,02	153,04
490,47	154,14
490,93	132,64
491,39	153,14
491,84	117,44
492,30	149,14
492,75	194,24
493,21	161,54
493,67	156,84
494,12	115,24
494,58	139,54
495,03	116,54
495,49	158,64
495,95	127,84
496,40	128,94
496,86	144,64
497,31	163,94
497,77	151,74
498,23	177,74
498,68	126,94
499,14	161,24
499,59	133,04
500,05	143,74
500,50	115,14
500,96	173,14
501,41	158,34
501,87	158,74
502,33	134,44
502,78	150,44
503,24	138,54
503,69	130,84
504,15	163,14
504,60	139,64
505,06	153,84
505,51	202,54
505,97	185,84
506,42	142,24
506,88	162,14
507,33	145,74
507,79	212,04
508,24	152,84
508,70	132,24
509,15	151,64
509,61	148,64
510,06	171,54
510,52	152,04
510,97	150,24
511,43	151,94
511,88	166,04
512,34	132,74
512,79	156,94
513,25	161,84
513,70	130,04
514,16	142,94
514,61	171,54
515,07	142,34
515,52	167,04
515,98	166,14
516,43	138,84
516,89	124,84
517,34	116,34
517,80	136,74
518,25	154,14
518,70	135,84
519,16	177,44
519,61	184,34
520,07	128,94
520,52	122,84
520,98	140,74
521,43	164,34
521,89	118,04
522,34	184,74
522,79	185,94
523,25	123,94
523,70	163,24
524,16	175,24
524,61	173,24
525,06	227,54
525,52	165,54
525,97	155,74
526,43	252,64
526,88	149,74
527,33	138,44
527,79	126,54
528,24	131,94
528,70	162,54
529,15	167,64
529,60	175,64
530,06	146,14
530,51	122,44
530,97	195,94
531,42	173,04
531,87	145,04
532,33	188,64
532,78	163,74
533,23	177,54
533,69	181,94
534,14	157,84
534,59	151,74
535,05	148,44
535,50	150,34
535,96	173,34
536,41	171,74
536,86	149,24
537,32	123,54
537,77	166,74
538,22	171,34
538,68	128,34
539,13	178,94
539,58	148,64
540,03	152,54
540,49	161,74
540,94	160,44
541,39	145,44
541,85	132,64
542,30	149,74
542,75	137,44
543,21	152,94
543,66	141,74
544,11	167,34
544,57	133,84
545,02	167,94
545,47	151,04
545,92	146,64
546,38	193,34
546,83	171,24
547,28	296,94
547,73	122,64
548,19	193,44
548,64	160,14
549,09	119,44
549,55	167,54
550,00	158,64
550,45	147,14
550,90	230,24
551,36	121,24
551,81	199,64
552,26	178,64
552,71	156,64
553,17	148,54
553,62	182,74
554,07	159,24
554,52	165,74
554,97	171,34
555,43	158,04
555,88	155,44
556,33	142,94
556,78	134,24
557,24	208,14
557,69	147,34
558,14	131,14
558,59	161,54
559,04	159,14
559,50	211,44
559,95	160,24
560,40	139,14
560,85	163,74
561,30	151,64
561,76	134,34
562,21	164,04
562,66	156,84
563,11	202,84
563,56	159,84
564,01	187,34
564,47	127,64
564,92	156,64
565,37	209,54
565,82	144,94
566,27	152,84
566,72	132,54
567,18	136,74
567,63	137,04
568,08	159,94
568,53	156,14
568,98	147,84
569,43	140,94
569,88	142,94
570,34	156,74
570,79	180,64
571,24	133,64
571,69	160,34
572,14	142,64
572,59	148,74
573,04	157,34
573,49	187,34
573,94	146,74
574,40	137,84
574,85	153,04
575,30	182,54
575,75	150,54
576,20	156,14
576,65	174,54
577,10	151,94
577,55	148,04
578,00	170,94
578,45	170,84
578,91	147,64
579,36	163,84
579,81	162,84
580,26	136,94
580,71	137,04
581,16	160,24
581,61	186,94
582,06	174,74
582,51	128,34
582,96	157,14
583,41	108,44
583,86	182,94
584,31	152,84
584,76	148,84
585,21	134,34
585,66	184,64
586,11	156,44
586,56	141,74
587,01	159,94
587,46	155,94
587,92	152,24
588,37	153,74
588,82	156,14
589,27	160,74
589,72	124,74
590,17	151,84
590,62	153,24
591,07	152,74
591,52	168,74
591,97	134,64
592,42	228,04
592,87	149,74
593,32	143,54
593,77	144,04
594,22	150,84
594,67	177,34
595,12	136,54
595,56	165,14
596,01	146,34
596,46	133,94
596,91	166,84
597,36	167,44
597,81	140,64
598,26	125,34
598,71	189,04
599,16	143,14
599,61	160,54
600,06	145,84
600,51	175,94
600,96	152,74
601,41	156,34
601,86	192,44
602,31	141,54
602,76	134,24
603,21	192,94
603,66	171,54
604,11	183,14
604,55	158,74
605,00	130,14
605,45	154,74
605,90	181,14
606,35	135,54
606,80	157,34
607,25	188,04
607,70	166,04
608,15	180,24
608,60	123,64
609,04	225,34
609,49	142,14
609,94	154,44
610,39	126,44
610,84	115,24
611,29	167,84
611,74	148,14
612,19	172,94
612,64	159,54
613,08	121,44
613,53	155,14
613,98	151,34
614,43	150,94
614,88	162,94
615,33	154,64
615,78	219,14
616,22	171,04
616,67	151,14
617,12	138,64
617,57	155,04
618,02	127,84
618,47	198,24
618,91	170,04
619,36	153,84
619,81	238,84
620,26	129,54
620,71	121,24
621,16	124,34
621,60	122,94
622,05	157,54
622,50	142,64
622,95	137,34
623,40	139,24
623,84	155,64
624,29	175,34
624,74	136,54
625,19	142,44
625,64	146,34
626,08	166,64
626,53	147,14
626,98	172,24
627,43	177,54
627,87	150,24
628,32	183,94
628,77	181,24
629,22	181,54
629,66	141,94
630,11	137,04
630,56	180,64
631,01	132,64
631,46	150,34
631,90	158,84
632,35	139,24
632,80	148,34
633,25	158,04
633,69	137,54
634,14	169,24
634,59	177,94
635,03	116,94
635,48	152,94
635,93	159,14
636,38	130,64
636,82	167,34
637,27	147,64
637,72	169,04
638,16	163,64
638,61	188,44
639,06	132,44
639,51	137,64
639,95	127,24
640,40	138,84
640,85	129,84
641,29	148,14
641,74	133,84
642,19	119,54
642,63	148,54
643,08	145,54
643,53	134,74
643,97	170,04
644,42	167,44
644,87	135,84
645,31	158,84
645,76	132,44
646,21	124,64
646,65	156,94
647,10	181,04
647,55	117,94
647,99	136,54
648,44	145,64
648,89	118,74
649,33	137,34
649,78	166,14
650,23	134,44
650,67	124,64
651,12	136,74
651,56	126,44
652,01	154,04
652,46	153,04
652,90	160,54
653,35	175,74
653,80	158,14
654,24	161,14
654,69	117,34
655,13	175,74
655,58	161,24
656,03	258,14
656,47	120,84
656,92	129,64
657,36	138,14
657,81	148,74
658,26	130,94
658,70	149,14
659,15	142,54
659,59	140,24
660,04	152,94
660,48	158,34
660,93	136,34
661,38	132,04
661,82	171,54
662,27	133,94
662,71	148,14
663,16	158,54
663,60	172,64
664,05	128,84
664,49	161,44
664,94	135,54
665,38	269,34
665,83	132,34
666,28	180,44
666,72	147,84
667,17	126,64
667,61	141,74
668,06	130,44
668,50	118,64
668,95	163,44
669,39	140,14
669,84	134,24
670,28	143,54
670,73	121,14
671,17	151,04
671,62	127,64
672,06	157,24
672,51	152,44
672,95	219,84
673,40	184,14
673,84	126,64
674,29	151,64
674,73	126,84
675,18	213,14
675,62	105,94
676,07	124,94
676,51	178,74
676,95	147,44
677,40	181,44
677,84	216,74
678,29	143,04
678,73	151,54
679,18	180,64
679,62	240,64
680,07	155,14
680,51	161,14
680,96	118,14
681,40	126,14
681,84	149,74
682,29	146,74
682,73	151,14
683,18	137,84
683,62	230,84
684,07	134,64
684,51	141,44
684,95	152,24
685,40	141,44
685,84	145,24
686,29	149,14
686,73	113,44
687,17	107,64
687,62	143,04
688,06	152,64
688,51	170,54
688,95	160,24
689,39	158,54
689,84	178,64
690,28	158,64
690,73	157,04
691,17	157,24
691,61	143,24
692,06	124,34
692,50	154,34
692,94	137,04
693,39	150,04
693,83	145,64
694,27	224,54
694,72	162,14
695,16	115,74
695,60	147,94
696,05	140,84
696,49	118,64
696,94	152,24
697,38	120,34
697,82	151,54
698,27	141,74
698,71	167,14
699,15	163,34
699,59	146,94
700,04	148,34
700,48	281,94
700,92	151,34
701,37	152,74
701,81	198,44
702,25	144,64
702,70	142,34
703,14	154,94
703,58	127,74
704,03	172,34
704,47	171,64
704,91	132,44
705,35	136,44
705,80	171,64
706,24	169,94
706,68	254,54
707,13	118,14
707,57	193,64
708,01	126,74
708,45	130,24
708,90	158,04
709,34	143,44
709,78	137,14
710,22	179,54
710,67	177,74
711,11	175,54
711,55	121,24
711,99	164,44
712,44	146,84
712,88	145,94
713,32	154,74
713,76	176,54
714,21	148,74
714,65	137,54
715,09	144,94
715,53	147,64
715,97	133,34
716,42	167,44
716,86	149,74
717,30	154,74
717,74	124,94
718,18	205,54
718,63	140,34
719,07	151,64
719,51	188,94
719,95	170,54
720,39	145,74
720,84	151,84
721,28	134,24
721,72	142,64
722,16	119,34
722,60	115,94
723,04	150,54
723,49	191,84
723,93	122,04
724,37	121,94
724,81	152,34
725,25	141,94
725,69	136,84
726,14	149,84
726,58	138,54
727,02	164,14
727,46	138,84
727,90	122,54
728,34	118,54
728,78	152,44
729,23	111,54
729,67	158,24
730,11	118,24
730,55	143,94
730,99	137,44
731,43	143,54
731,87	202,24
732,31	128,04
732,76	182,24
733,20	161,24
733,64	143,24
734,08	178,94
734,52	133,84
734,96	168,14
735,40	123,04
735,84	149,24
736,28	160,74
736,72	148,44
737,16	151,04
737,61	130,54
738,05	160,64
738,49	167,54
738,93	131,94
739,37	167,44
739,81	161,64
740,25	149,54
740,69	225,14
741,13	129,14
741,57	159,44
742,01	169,54
742,45	162,94
742,89	151,14
743,33	136,54
743,77	152,44
744,21	115,84
744,65	176,54
745,09	152,14
745,53	129,64
745,98	161,94
746,42	166,84
746,86	148,24
747,30	153,24
747,74	127,24
748,18	130,94
748,62	146,74
749,06	174,94
749,50	171,34
749,94	146,54
750,38	173,24
750,82	191,74
751,26	106,34
751,70	129,34
752,14	119,04
752,58	162,04
753,02	143,24
753,45	132,74
753,89	162,84
754,33	227,04
754,77	155,54
755,21	140,34
755,65	117,74
756,09	135,24
756,53	141,54
756,97	138,84
757,41	203,44
757,85	135,54
758,29	139,84
758,73	121,04
759,17	134,64
759,61	125,64
760,05	141,24
760,49	150,24
760,93	178,54
761,37	136,74
761,80	181,94
762,24	150,34
762,68	140,34
763,12	135,34
763,56	142,64
764,00	122,34
764,44	139,34
764,88	156,44
765,32	156,34
765,76	160,04
766,20	182,54
766,63	135,24
767,07	118,84
767,51	138,74
767,95	167,34
768,39	150,54
768,83	119,14
769,27	133,74
769,71	161,24
770,14	120,34
770,58	118,04
771,02	133,94
771,46	141,94
771,90	143,44
772,34	149,54
772,78	174,84
773,21	146,14
773,65	200,54
774,09	127,34
774,53	140,14
774,97	130,94
775,41	118,64
775,84	160,04
776,28	150,54
776,72	153,04
777,16	125,04
777,60	135,14
778,04	138,84
778,47	113,14
778,91	139,94
779,35	115,84
779,79	150,94
780,23	154,14
780,66	122,64
781,10	140,04
781,54	138,24
781,98	157,44
782,42	159,44
782,85	140,04
783,29	153,34
783,73	222,54
784,17	182,94
784,61	146,24
785,04	173,84
785,48	155,04
785,92	127,84
786,36	156,04
786,79	118,54
787,23	140,84
787,67	172,24
788,11	167,64
788,54	144,04
788,98	138,44
789,42	136,64
789,86	127,14
790,29	165,24
790,73	168,04
791,17	173,14
791,60	122,34
792,04	136,24
792,48	154,84
792,92	130,74
793,35	135,44
793,79	128,74
794,23	144,14
794,67	127,04
795,10	131,94
795,54	173,24
795,98	141,04
796,41	144,94
796,85	133,74
797,29	260,04
797,72	173,64
798,16	147,74
798,60	157,74
799,03	142,14
799,47	119,64
799,91	154,14
800,34	140,04
800,78	144,74
801,22	131,44
801,65	121,04
802,09	144,84
802,53	172,84
802,96	160,64
803,40	124,84
803,84	191,94
804,27	153,04
804,71	131,54
805,15	156,64
805,58	155,14
806,02	130,44
806,46	162,44
806,89	190,34
807,33	166,84
807,76	159,34
808,20	144,74
808,64	133,94
809,07	199,64
809,51	207,04
809,95	203,84
810,38	169,74
810,82	204,64
811,25	141,24
811,69	149,74
812,13	128,64
812,56	161,44
813,00	146,24
813,43	136,94
813,87	121,34
814,30	159,64
814,74	182,64
815,18	248,84
815,61	137,54
816,05	133,64
816,48	162,14
816,92	198,74
817,35	175,04
817,79	153,44
818,23	169,94
818,66	164,04
819,10	154,04
819,53	136,34
819,97	136,24
820,40	131,14
820,84	164,74
821,27	152,84
821,71	173,04
822,14	139,54
822,58	159,34
823,01	176,54
823,45	136,94
823,88	160,44
824,32	139,64
824,75	153,44
825,19	133,34
825,63	187,34
826,06	125,94
826,50	152,84
826,93	156,84
827,37	126,34
827,80	150,94
828,23	149,64
828,67	152,64
829,10	163,54
829,54	123,04
829,97	148,24
830,41	105,04
830,84	141,04
831,28	160,04
831,71	183,54
832,15	134,64
832,58	168,74
833,02	159,64
833,45	137,24
833,89	183,74
834,32	136,04
834,75	212,24
835,19	177,74
835,62	171,94
836,06	119,54
836,49	143,04
836,93	139,64
837,36	170,44
837,79	162,14
838,23	144,14
838,66	132,44
839,10	178,14
839,53	143,04
839,97	153,34
840,40	141,34
840,83	179,14
841,27	135,14
841,70	136,14
842,14	161,84
842,57	145,14
843,00	195,64
843,44	211,04
843,87	151,34
844,31	179,84
844,74	105,44
845,17	134,84
845,61	120,54
846,04	137,84
846,47	169,44
846,91	142,64
847,34	168,14
847,77	149,84
848,21	129,94
848,64	158,34
849,08	141,04
849,51	167,54
849,94	129,34
850,38	128,04
850,81	145,04
851,24	133,44
851,68	135,64
852,11	137,74
852,54	156,34
852,98	172,94
853,41	164,14
853,84	144,74
854,28	179,74
854,71	133,44
855,14	150,24
855,57	172,84
856,01	133,94
856,44	137,14
856,87	167,34
857,31	123,74
857,74	167,64
858,17	119,84
858,61	138,24
859,04	174,64
859,47	183,14
859,90	149,04
860,34	158,04
860,77	147,54
861,20	117,04
861,63	170,14
862,07	109,74
862,50	131,94
862,93	142,74
863,37	149,04
863,80	142,74
864,23	159,64
864,66	133,64
865,10	141,14
865,53	164,84
865,96	129,34
866,39	130,64
866,82	170,74
867,26	133,04
867,69	145,94
868,12	134,24
868,55	124,44
868,99	140,34
869,42	110,34
869,85	171,14
870,28	128,14
870,71	152,84
871,15	147,14
871,58	129,94
872,01	149,94
872,44	146,64
872,87	187,44
873,31	221,64
873,74	123,14
874,17	145,54
874,60	146,84
875,03	133,84
875,47	155,14
875,90	157,14
876,33	144,44
876,76	167,64
877,19	157,14
877,62	136,54
878,06	123,84
878,49	176,24
878,92	107,14
879,35	158,04
879,78	145,54
880,21	143,54
880,64	147,44
881,08	147,64
881,51	153,34
881,94	142,84
882,37	200,64
882,80	128,14
883,23	128,04
883,66	137,94
884,09	145,34
884,53	168,74
884,96	143,04
885,39	144,84
885,82	146,54
886,25	140,44
886,68	123,54
887,11	159,84
887,54	144,44
887,97	160,24
888,40	167,04
888,84	139,94
889,27	134,24
889,70	189,44
890,13	122,44
890,56	129,54
890,99	147,54
891,42	139,04
891,85	242,74
892,28	118,54
892,71	160,14
893,14	130,04
893,57	162,44
894,00	165,54
894,43	126,34
894,86	126,34
895,29	129,34
895,73	119,74
896,16	133,74
896,59	151,84
897,02	130,64
897,45	160,34
897,88	140,24
898,31	121,34
898,74	150,94
899,17	152,34
899,60	127,04
900,03	121,94
900,46	129,14
900,89	150,84
901,32	170,94
901,75	130,04
902,18	127,14
902,61	126,94
903,04	159,84
903,47	159,34
903,90	126,34
904,33	189,34
904,76	209,24
905,19	130,84
905,62	135,04
906,05	193,64
906,48	127,94
906,91	158,24
907,34	129,94
907,76	136,44
908,19	115,54
908,62	172,64
909,05	144,14
909,48	172,94
909,91	147,44
910,34	138,54
910,77	162,74
911,20	181,24
911,63	141,04
912,06	119,34
912,49	153,44
912,92	152,54
913,35	135,74
913,78	133,14
914,21	133,54
914,63	151,14
915,06	133,04
915,49	155,84
915,92	147,44
916,35	141,64
916,78	121,24
917,21	120,64
917,64	133,44
918,07	125,44
918,50	169,14
918,92	126,74
919,35	173,04
919,78	129,24
920,21	165,34
920,64	130,74
921,07	140,34
921,50	138,44
921,93	157,94
922,35	162,84
922,78	144,14
923,21	191,34
923,64	150,94
924,07	136,24
924,50	124,84
924,92	113,64
925,35	152,74
925,78	178,04
926,21	164,14
926,64	118,14
927,07	161,34
927,49	123,74
927,92	164,64
928,35	204,54
928,78	139,44
929,21	157,94
929,64	115,84
930,06	204,84
930,49	143,54
930,92	124,54
931,35	155,64
931,78	139,94
932,20	154,04
932,63	166,54
933,06	131,04
933,49	155,54
933,92	109,44
934,34	192,94
934,77	172,34
935,20	220,84
935,63	150,14
936,05	175,14
936,48	167,24
936,91	157,94
937,34	154,34
937,76	121,94
938,19	137,84
938,62	132,74
939,05	155,44
939,47	121,34
939,90	161,14
940,33	127,74
940,76	134,94
941,18	160,34
941,61	129,24
942,04	144,54
942,47	167,24
942,89	205,04
943,32	131,14
943,75	165,04
944,17	131,44
944,60	138,64
945,03	161,14
945,46	115,34
945,88	109,84
946,31	163,14
946,74	143,14
947,16	149,24
947,59	139,14
948,02	153,94
948,44	150,34
948,87	177,84
949,30	137,04
949,72	146,84
950,15	157,84
950,58	118,74
951,00	117,54
951,43	120,74
951,86	205,44
952,28	180,24
952,71	142,74
953,14	135,04
953,56	147,14
953,99	117,44
954,42	160,64
954,84	133,74
955,27	193,34
955,70	110,64
956,12	127,24
956,55	134,64
956,98	145,54
957,40	133,34
957,83	150,34
958,25	124,94
958,68	168,04
959,11	230,14
959,53	114,14
959,96	148,44
960,38	146,84
960,81	128,74
961,24	132,94
961,66	124,44
962,09	101,24
962,51	136,04
962,94	161,84
963,37	159,44
963,79	165,04
964,22	162,54
964,64	130,54
965,07	148,14
965,49	134,14
965,92	145,44
966,35	140,24
966,77	128,24
967,20	161,74
967,62	131,44
968,05	136,84
968,47	154,74
968,90	120,54
969,32	131,64
969,75	171,24
970,17	263,94
970,60	154,54
971,03	141,64
971,45	148,44
971,88	122,74
972,30	132,34
972,73	154,94
973,15	132,84
973,58	152,54
974,00	121,44
974,43	125,04
974,85	136,94
975,28	156,44
975,70	133,54
976,13	154,64
976,55	151,14
976,98	129,54
977,40	130,74
977,83	124,84
978,25	144,44
978,68	116,14
979,10	154,74
979,53	148,04
979,95	141,44
980,37	145,64
980,80	137,54
981,22	166,44
981,65	162,24
982,07	124,34
982,50	152,24
982,92	168,74
983,35	138,54
983,77	140,54
984,20	138,04
984,62	134,24
985,04	133,24
985,47	171,34
985,89	162,14
986,32	121,04
986,74	106,74
987,17	142,74
987,59	159,74
988,01	138,04
988,44	127,84
988,86	147,74
989,29	145,04
989,71	148,14
990,13	139,74
990,56	149,14
990,98	147,84
991,41	136,14
991,83	150,34
992,25	144,54
992,68	144,34
993,10	189,84
993,53	136,74
993,95	121,14
994,37	148,64
994,80	134,44
995,22	135,94
995,64	153,24
996,07	165,14
996,49	150,04
996,91	139,24
997,34	110,74
997,76	109,64
998,18	114,74
998,61	175,04
999,03	169,04
999,45	135,84
999,88	157,64
1000,30	125,14
1000,72	179,34
1001,15	145,24
1001,57	144,14
1001,99	178,34
1002,42	122,84
1002,84	148,54
1003,26	164,54
1003,69	139,14
1004,11	152,94
1004,53	146,24
1004,96	164,54
1005,38	121,24
1005,80	142,84
1006,22	152,64
1006,65	170,74
1007,07	140,04
1007,49	121,04
1007,92	160,54
1008,34	136,44
1008,76	127,94
1009,18	118,14
1009,61	142,54
1010,03	125,24
1010,45	239,44
1010,87	163,34
1011,30	165,74
1011,72	154,44
1012,14	154,44
1012,56	163,44
1012,99	144,14
1013,41	164,14
1013,83	147,64
1014,25	151,34
1014,68	154,34
1015,10	124,74
1015,52	172,24
1015,94	110,54
1016,37	166,84
1016,79	127,44
1017,21	143,44
1017,63	122,54
1018,05	153,74
1018,48	136,84
1018,90	135,74
1019,32	143,24
1019,74	106,74
1020,16	227,64
1020,59	171,64
1021,01	159,84
1021,43	135,14
1021,85	138,24
1022,27	147,74
1022,69	158,54
1023,12	155,24
1023,54	140,24
1023,96	234,44
1024,38	170,14
1024,80	165,34
1025,22	161,14
1025,65	153,94
1026,07	151,74
1026,49	165,54
1026,91	127,14
1027,33	126,54
1027,75	202,14
1028,17	149,04
1028,60	155,04
1029,02	143,84
1029,44	158,74
1029,86	129,54
1030,28	204,54
1030,70	145,14
1031,12	146,04
1031,54	159,34
1031,97	182,14
1032,39	121,44
1032,81	150,44
1033,23	163,34
1033,65	137,74
1034,07	165,84
1034,49	128,14
1034,91	134,14
1035,33	154,94
1035,75	168,04
1036,18	129,84
1036,60	193,94
1037,02	129,24
1037,44	134,84
1037,86	150,84
1038,28	113,84
1038,70	173,54
1039,12	172,44
1039,54	160,04
1039,96	182,74
1040,38	181,84
1040,80	142,04
1041,22	141,04
1041,64	155,14
1042,06	140,24
1042,48	186,54
1042,90	181,04
1043,32	164,44
1043,74	165,24
1044,17	145,84
1044,59	175,14
1045,01	128,24
1045,43	135,54
1045,85	134,34
1046,27	124,04
1046,69	150,24
1047,11	159,84
1047,53	121,64
1047,95	148,04
1048,37	167,64
1048,79	124,34
1049,21	174,84
1049,63	164,94
1050,05	169,84
1050,47	144,64
1050,89	138,14
1051,31	158,74
1051,72	157,74
1052,14	179,94
1052,56	177,64
1052,98	144,64
1053,40	166,24
1053,82	105,54
1054,24	148,44
1054,66	110,54
1055,08	148,64
1055,50	128,54
1055,92	153,84
1056,34	159,44
1056,76	196,54
1057,18	169,34
1057,60	172,24
1058,02	143,04
1058,44	255,24
1058,86	126,94
1059,28	158,14
1059,69	164,14
1060,11	148,84
1060,53	142,04
1060,95	134,24
1061,37	164,54
1061,79	149,14
1062,21	136,24
1062,63	161,44
1063,05	188,24
1063,47	153,34
1063,88	149,04
1064,30	134,64
1064,72	180,54
1065,14	168,84
1065,56	136,04
1065,98	128,24
1066,40	109,74
1066,82	173,74
1067,23	152,34
1067,65	147,94
1068,07	154,94
1068,49	138,24
1068,91	188,94
1069,33	154,04
1069,75	130,84
1070,16	120,44
1070,58	173,44
1071,00	174,54
1071,42	173,24
1071,84	136,54
1072,26	153,24
1072,67	132,84
1073,09	128,44
1073,51	118,94
1073,93	162,04
1074,35	134,24
1074,77	116,34
1075,18	139,94
1075,60	138,74
1076,02	144,24
1076,44	134,84
1076,86	128,14
1077,27	144,74
1077,69	173,44
1078,11	135,24
1078,53	169,64
1078,94	188,74
1079,36	109,14
1079,78	149,94
1080,20	138,24
1080,62	147,04
1081,03	160,44
1081,45	142,44
1081,87	134,94
1082,29	156,34
1082,70	140,74
1083,12	141,14
1083,54	147,54
1083,96	146,04
1084,37	169,34
1084,79	141,84
1085,21	146,94
1085,63	182,74
1086,04	127,14
1086,46	130,24
1086,88	162,84
1087,30	112,14
1087,71	160,54
1088,13	1473,34
1088,55	139,74
1088,96	133,84
1089,38	131,34
1089,80	137,94
1090,22	176,24
1090,63	150,94
1091,05	122,34
1091,47	155,24
1091,88	134,14
1092,30	130,84
1092,72	141,44
1093,13	139,24
1093,55	146,94
1093,97	131,14
1094,38	147,04
1094,80	144,84
1095,22	146,34
1095,63	128,84
1096,05	143,24
1096,47	155,44
1096,88	117,94
1097,30	150,74
1097,72	127,74
1098,13	156,24
1098,55	150,44
1098,97	167,54
1099,38	136,94
1099,80	143,64
1100,21	130,54
1100,63	133,34
1101,05	139,24
1101,46	140,34
1101,88	124,84
1102,30	134,04
1102,71	139,84
1103,13	147,74
1103,54	145,74
1103,96	135,24
1104,38	187,64
1104,79	104,44
1105,21	140,84
1105,62	141,54
1106,04	128,64
1106,46	134,94
1106,87	100,84
1107,29	114,34
1107,70	172,04
1108,12	111,24
1108,54	152,94
1108,95	147,44
1109,37	144,84
1109,78	102,54
1110,20	131,44
1110,61	101,94
1111,03	101,94
1111,44	101,94
1111,86	101,94
1112,28	101,94
1112,69	101,94
1113,11	101,94
1113,52	101,94
1113,94	101,94
1114,35	101,94
1114,77	101,94
1115,18	101,94
1115,60	101,94
1116,01	101,94
1116,43	101,94
1116,84	101,94
1117,26	101,94
1117,67	101,94
1118,09	101,94
1118,50	101,94
1118,92	101,94
>>>>>End Processed Spectral Data<<<<<
