SpectraSuite Data File
++++++++++++++++++++++++++++++++++++
Date: Mon Aug 22 09:36:57 EEST 2011
User: OO Maya
Dark Spectrum Present: No
Reference Spectrum Present: No
Number of Sampled Component Spectra: 1
Spectrometers: MAYP11278
Integration Time (usec): 300000 (MAYP11278)
Spectra Averaged: 10 (MAYP11278)
Boxcar Smoothing: 0 (MAYP11278)
Correct for Electrical Dark: Yes (MAYP11278)
Strobe/Lamp Enabled: No (MAYP11278)
Correct for Detector Non-linearity: No (MAYP11278)
Correct for Stray Light: No (MAYP11278)
Number of Pixels in Processed Spectrum: 2068
>>>>>Begin Processed Spectral Data<<<<<
200,00	3276,20
200,47	-188,93
200,95	-190,23
201,42	-192,63
201,89	126,57
202,37	131,17
202,84	134,97
203,31	139,47
203,79	171,57
204,26	134,57
204,73	125,17
205,20	123,97
205,68	131,07
206,15	140,17
206,62	151,47
207,10	128,57
207,57	158,17
208,04	132,97
208,51	145,37
208,99	202,47
209,46	140,67
209,93	119,47
210,41	136,27
210,88	125,27
211,35	153,97
211,82	155,77
212,30	133,87
212,77	139,57
213,24	163,47
213,71	162,47
214,19	161,77
214,66	116,77
215,13	158,77
215,60	133,57
216,08	169,27
216,55	171,57
217,02	140,07
217,49	128,57
217,96	177,27
218,44	138,77
218,91	151,77
219,38	208,47
219,85	151,97
220,33	159,97
220,80	139,97
221,27	171,57
221,74	158,57
222,21	147,37
222,69	142,37
223,16	154,97
223,63	151,47
224,10	138,57
224,57	194,47
225,04	169,17
225,52	145,17
225,99	200,57
226,46	160,57
226,93	185,47
227,40	159,67
227,87	162,47
228,35	166,27
228,82	160,47
229,29	139,57
229,76	143,67
230,23	179,97
230,70	117,67
231,18	138,37
231,65	139,37
232,12	148,97
232,59	182,77
233,06	137,97
233,53	171,37
234,00	141,97
234,48	173,17
234,95	142,77
235,42	161,67
235,89	147,87
236,36	143,97
236,83	135,17
237,30	151,67
237,77	133,27
238,24	154,17
238,72	168,47
239,19	146,37
239,66	167,67
240,13	167,87
240,60	172,57
241,07	151,47
241,54	149,37
242,01	146,77
242,48	172,37
242,95	184,87
243,42	155,77
243,90	165,87
244,37	137,07
244,84	159,37
245,31	156,67
245,78	236,67
246,25	161,07
246,72	144,87
247,19	141,47
247,66	132,37
248,13	170,27
248,60	203,97
249,07	144,37
249,54	163,07
250,01	161,47
250,48	156,77
250,95	159,67
251,42	135,57
251,89	162,67
252,36	188,57
252,83	155,97
253,30	150,87
253,77	180,27
254,24	183,17
254,71	137,07
255,18	134,37
255,65	173,67
256,12	193,57
256,59	149,17
257,06	184,67
257,53	186,67
258,00	143,47
258,47	156,87
258,94	159,07
259,41	160,27
259,88	168,27
260,35	121,97
260,82	159,07
261,29	168,47
261,76	166,17
262,23	183,77
262,70	165,47
263,17	205,97
263,64	196,17
264,11	145,87
264,58	185,87
265,05	170,27
265,52	148,37
265,99	161,97
266,46	168,37
266,93	177,37
267,40	153,97
267,87	172,67
268,34	169,47
268,81	190,47
269,28	235,37
269,74	168,97
270,21	152,17
270,68	161,87
271,15	182,67
271,62	205,57
272,09	155,57
272,56	135,57
273,03	195,87
273,50	148,67
273,97	165,57
274,44	165,47
274,90	141,17
275,37	180,07
275,84	190,47
276,31	144,47
276,78	162,47
277,25	170,37
277,72	176,17
278,19	163,27
278,66	158,87
279,12	165,87
279,59	171,57
280,06	122,47
280,53	137,37
281,00	151,97
281,47	175,37
281,94	181,37
282,40	151,57
282,87	165,87
283,34	132,97
283,81	138,57
284,28	122,47
284,75	156,57
285,21	250,47
285,68	182,67
286,15	176,27
286,62	140,87
287,09	158,97
287,56	172,97
288,02	175,07
288,49	131,67
288,96	149,27
289,43	140,47
289,90	268,57
290,36	154,77
290,83	144,17
291,30	258,37
291,77	184,47
292,24	235,17
292,70	151,67
293,17	185,07
293,64	152,77
294,11	153,57
294,58	168,87
295,04	153,37
295,51	129,67
295,98	176,87
296,45	153,67
296,91	164,37
297,38	173,17
297,85	136,17
298,32	165,57
298,79	204,07
299,25	151,87
299,72	180,07
300,19	122,07
300,66	193,97
301,12	139,57
301,59	165,37
302,06	149,87
302,52	175,87
302,99	213,67
303,46	147,67
303,93	185,07
304,39	150,27
304,86	180,07
305,33	169,87
305,80	142,57
306,26	168,37
306,73	171,17
307,20	206,27
307,66	199,47
308,13	173,77
308,60	179,67
309,07	174,87
309,53	152,87
310,00	198,07
310,47	160,47
310,93	171,57
311,40	150,87
311,87	191,07
312,33	185,97
312,80	186,97
313,27	145,27
313,73	176,67
314,20	181,77
314,67	139,97
315,13	155,67
315,60	137,77
316,07	164,87
316,53	162,77
317,00	166,27
317,47	179,87
317,93	152,87
318,40	155,77
318,87	172,37
319,33	154,77
319,80	184,97
320,26	185,97
320,73	175,97
321,20	172,97
321,66	174,97
322,13	152,17
322,60	186,67
323,06	163,57
323,53	221,87
323,99	149,07
324,46	159,17
324,93	175,57
325,39	145,97
325,86	144,97
326,32	186,97
326,79	175,57
327,26	169,37
327,72	173,77
328,19	168,17
328,65	233,57
329,12	164,17
329,59	160,87
330,05	140,87
330,52	175,37
330,98	215,37
331,45	182,47
331,91	158,37
332,38	132,97
332,85	141,57
333,31	212,27
333,78	160,27
334,24	168,37
334,71	136,87
335,17	172,67
335,64	162,77
336,10	158,77
336,57	156,77
337,03	152,47
337,50	167,17
337,96	175,37
338,43	176,77
338,90	169,37
339,36	152,07
339,83	163,77
340,29	155,97
340,76	143,07
341,22	170,77
341,69	170,97
342,15	216,37
342,62	143,77
343,08	219,47
343,55	184,07
344,01	171,57
344,48	198,07
344,94	168,27
345,41	175,77
345,87	265,37
346,34	144,97
346,80	156,57
347,27	166,47
347,73	180,37
348,19	160,07
348,66	165,57
349,12	206,27
349,59	187,67
350,05	141,77
350,52	158,57
350,98	148,07
351,45	178,37
351,91	193,47
352,38	163,77
352,84	168,67
353,30	180,67
353,77	179,87
354,23	166,77
354,70	174,07
355,16	145,47
355,63	166,97
356,09	180,77
356,55	152,97
357,02	144,87
357,48	201,87
357,95	157,67
358,41	197,57
358,87	177,87
359,34	139,97
359,80	173,67
360,27	184,37
360,73	168,97
361,19	150,57
361,66	180,37
362,12	205,07
362,59	172,27
363,05	161,27
363,51	174,07
363,98	177,47
364,44	176,27
364,91	183,27
365,37	175,57
365,83	213,97
366,30	154,87
366,76	208,07
367,22	145,67
367,69	236,77
368,15	179,97
368,61	129,17
369,08	149,47
369,54	149,07
370,00	158,97
370,47	191,67
370,93	207,37
371,39	160,57
371,86	169,47
372,32	167,77
372,78	168,37
373,25	169,07
373,71	224,27
374,17	184,67
374,64	152,37
375,10	181,07
375,56	150,17
376,03	141,17
376,49	168,77
376,95	167,37
377,42	166,27
377,88	140,47
378,34	139,47
378,80	188,07
379,27	143,47
379,73	187,07
380,19	180,97
380,66	163,77
381,12	160,37
381,58	170,37
382,04	156,07
382,51	136,17
382,97	175,67
383,43	176,37
383,89	140,87
384,36	158,67
384,82	172,67
385,28	134,57
385,74	196,97
386,21	161,07
386,67	148,57
387,13	141,87
387,59	175,07
388,06	174,17
388,52	165,37
388,98	167,87
389,44	164,87
389,91	181,07
390,37	201,87
390,83	174,47
391,29	204,37
391,75	207,97
392,22	147,97
392,68	179,77
393,14	163,27
393,60	195,17
394,06	177,67
394,53	308,27
394,99	180,97
395,45	160,27
395,91	172,27
396,37	218,57
396,84	153,07
397,30	154,17
397,76	194,57
398,22	187,17
398,68	208,67
399,14	166,87
399,61	196,87
400,07	188,87
400,53	199,27
400,99	198,77
401,45	185,37
401,91	194,67
402,38	181,97
402,84	183,87
403,30	261,47
403,76	195,77
404,22	229,37
404,68	181,37
405,14	217,57
405,61	336,57
406,07	189,67
406,53	224,77
406,99	237,47
407,45	205,97
407,91	213,97
408,37	225,97
408,83	219,57
409,29	275,47
409,76	232,97
410,22	261,07
410,68	271,27
411,14	303,17
411,60	308,67
412,06	313,67
412,52	307,67
412,98	377,47
413,44	372,57
413,90	423,37
414,36	451,77
414,83	452,87
415,29	423,47
415,75	505,67
416,21	515,07
416,67	586,57
417,13	568,77
417,59	615,97
418,05	664,07
418,51	677,37
418,97	772,77
419,43	774,37
419,89	885,57
420,35	882,87
420,81	1000,67
421,27	1029,07
421,73	1090,57
422,19	1222,17
422,65	1274,77
423,11	1396,37
423,57	1509,67
424,03	1640,47
424,49	1698,77
424,96	1859,57
425,42	1989,57
425,88	2109,97
426,34	2290,17
426,80	2419,37
427,26	2592,57
427,72	2801,67
428,18	2962,57
428,64	3201,77
429,10	3372,87
429,56	3674,47
430,02	3868,27
430,47	4144,37
430,93	4394,37
431,39	4729,07
431,85	5017,47
432,31	5340,27
432,77	5735,17
433,23	6096,27
433,69	6467,27
434,15	6871,87
434,61	7350,67
435,07	7815,87
435,53	8264,27
435,99	8800,47
436,45	9388,97
436,91	9994,07
437,37	10530,87
437,83	11194,07
438,29	11890,47
438,75	12593,97
439,21	13369,37
439,67	14247,27
440,12	15059,47
440,58	15984,47
441,04	16973,27
441,50	18023,67
441,96	19115,27
442,42	20252,67
442,88	21536,37
443,34	22886,67
443,80	24219,67
444,26	25562,17
444,72	27090,87
445,17	28637,47
445,63	30168,07
446,09	31897,37
446,55	33542,07
447,01	35366,27
447,47	37042,77
447,93	38927,07
448,39	40869,77
448,85	42506,37
449,30	44322,57
449,76	46081,97
450,22	47818,37
450,68	49432,47
451,14	51095,37
451,60	52421,07
452,06	53950,97
452,51	55174,17
452,97	56237,17
453,43	57290,97
453,89	57863,17
454,35	58435,57
454,81	58819,47
455,26	59017,27
455,72	59184,27
456,18	58848,07
456,64	58731,57
457,10	58170,67
457,56	57645,27
458,01	56761,27
458,47	55800,27
458,93	54769,77
459,39	53678,17
459,85	52328,67
460,30	51171,87
460,76	49786,87
461,22	48241,77
461,68	46887,07
462,14	45465,47
462,59	44043,87
463,05	42690,67
463,51	41318,57
463,97	40044,67
464,43	38877,97
464,88	37769,27
465,34	36616,87
465,80	35678,17
466,26	34668,57
466,71	33821,17
467,17	33005,77
467,63	32214,47
468,09	31471,27
468,54	30802,77
469,00	30034,37
469,46	29328,77
469,92	28731,17
470,37	28097,27
470,83	27414,67
471,29	26744,17
471,75	26177,07
472,20	25496,67
472,66	24853,27
473,12	24205,37
473,58	23624,77
474,03	22949,47
474,49	22357,87
474,95	21741,37
475,40	21170,37
475,86	20553,47
476,32	19891,77
476,78	19317,07
477,23	18777,47
477,69	18202,07
478,15	17609,37
478,60	17065,37
479,06	16635,27
479,52	16101,27
479,97	15648,77
480,43	15231,67
480,89	14796,87
481,34	14417,87
481,80	14087,97
482,26	13747,47
482,71	13396,47
483,17	13121,07
483,63	12850,77
484,08	12616,07
484,54	12414,37
485,00	12209,87
485,45	12022,27
485,91	11802,17
486,37	11714,77
486,82	11503,47
487,28	11391,07
487,74	11213,67
488,19	11144,57
488,65	11014,77
489,10	10879,77
489,56	10770,57
490,02	10694,17
490,47	10589,17
490,93	10496,47
491,39	10482,87
491,84	10399,27
492,30	10367,87
492,75	10406,77
493,21	10283,17
493,67	10240,47
494,12	10211,17
494,58	10251,97
495,03	10191,07
495,49	10286,17
495,95	10281,57
496,40	10313,57
496,86	10383,67
497,31	10470,17
497,77	10544,97
498,23	10639,67
498,68	10688,47
499,14	10827,97
499,59	10910,77
500,05	11055,47
500,50	11165,27
500,96	11344,17
501,41	11487,27
501,87	11673,27
502,33	11820,27
502,78	12006,57
503,24	12200,67
503,69	12355,97
504,15	12556,47
504,60	12795,87
505,06	12991,07
505,51	13245,57
505,97	13440,07
506,42	13654,07
506,88	13841,57
507,33	14062,67
507,79	14368,07
508,24	14519,77
508,70	14753,67
509,15	14965,97
509,61	15188,37
510,06	15391,97
510,52	15593,27
510,97	15855,57
511,43	16066,27
511,88	16260,87
512,34	16440,07
512,79	16725,17
513,25	16940,37
513,70	17129,27
514,16	17336,17
514,61	17615,27
515,07	17784,07
515,52	18028,07
515,98	18155,87
516,43	18382,47
516,89	18539,87
517,34	18746,17
517,80	18940,07
518,25	19159,17
518,70	19298,47
519,16	19556,97
519,61	19717,97
520,07	19880,37
520,52	20017,17
520,98	20289,97
521,43	20448,17
521,89	20533,97
522,34	20734,37
522,79	20964,97
523,25	21043,67
523,70	21246,17
524,16	21414,27
524,61	21522,97
525,06	21748,47
525,52	21833,17
525,97	21907,57
526,43	22183,27
526,88	22207,27
527,33	22313,67
527,79	22401,57
528,24	22577,77
528,70	22763,77
529,15	22861,07
529,60	22956,87
530,06	23039,67
530,51	23146,67
530,97	23309,57
531,42	23406,17
531,87	23451,17
532,33	23664,57
532,78	23684,87
533,23	23786,17
533,69	23868,77
534,14	23934,17
534,59	24026,97
535,05	24098,57
535,50	24182,47
535,96	24267,77
536,41	24345,37
536,86	24385,37
537,32	24445,37
537,77	24518,77
538,22	24604,97
538,68	24626,67
539,13	24744,07
539,58	24802,37
540,03	24785,57
540,49	24893,77
540,94	24979,47
541,39	24981,27
541,85	25024,47
542,30	25065,57
542,75	25126,17
543,21	25162,77
543,66	25212,47
544,11	25253,27
544,57	25256,67
545,02	25383,27
545,47	25354,37
545,92	25444,47
546,38	25506,87
546,83	25542,47
547,28	25628,07
547,73	25554,47
548,19	25656,57
548,64	25641,07
549,09	25624,47
549,55	25745,77
550,00	25725,47
550,45	25727,37
550,90	25853,07
551,36	25708,67
551,81	25872,77
552,26	25907,57
552,71	25877,97
553,17	25802,87
553,62	25888,17
554,07	25920,67
554,52	25971,27
554,97	25984,87
555,43	25958,67
555,88	25943,57
556,33	25927,87
556,78	25928,97
557,24	26033,67
557,69	25999,97
558,14	25977,17
558,59	26033,47
559,04	26012,67
559,50	26088,87
559,95	26031,97
560,40	26022,37
560,85	26044,97
561,30	26071,57
561,76	25995,07
562,21	26071,97
562,66	26044,97
563,11	26059,47
563,56	25950,27
564,01	26048,07
564,47	25968,27
564,92	26017,97
565,37	26022,17
565,82	25930,97
566,27	25972,97
566,72	25936,87
567,18	25943,87
567,63	25917,97
568,08	25855,77
568,53	25849,37
568,98	25893,97
569,43	25823,77
569,88	25837,37
570,34	25777,57
570,79	25857,27
571,24	25745,47
571,69	25704,87
572,14	25723,57
572,59	25650,97
573,04	25642,97
573,49	25588,17
573,94	25564,07
574,40	25526,27
574,85	25530,47
575,30	25513,57
575,75	25417,17
576,20	25372,17
576,65	25397,87
577,10	25345,77
577,55	25288,87
578,00	25269,87
578,45	25220,47
578,91	25120,07
579,36	25084,57
579,81	25135,67
580,26	25007,17
580,71	24982,87
581,16	24930,77
581,61	24925,67
582,06	24798,77
582,51	24670,27
582,96	24693,57
583,41	24590,57
583,86	24618,57
584,31	24525,27
584,76	24486,97
585,21	24360,67
585,66	24366,47
586,11	24323,17
586,56	24170,17
587,01	24198,37
587,46	24086,87
587,92	24031,17
588,37	23955,27
588,82	23903,47
589,27	23749,97
589,72	23726,57
590,17	23682,87
590,62	23612,97
591,07	23534,97
591,52	23460,97
591,97	23331,57
592,42	23363,07
592,87	23305,97
593,32	23190,77
593,77	23119,37
594,22	23044,77
594,67	23052,97
595,12	22916,97
595,56	22894,47
596,01	22733,27
596,46	22732,97
596,91	22727,57
597,36	22622,07
597,81	22587,37
598,26	22463,87
598,71	22490,87
599,16	22332,77
599,61	22313,37
600,06	22160,17
600,51	22145,17
600,96	22045,07
601,41	22007,67
601,86	21916,77
602,31	21832,67
602,76	21698,17
603,21	21652,37
603,66	21518,27
604,11	21472,07
604,55	21328,87
605,00	21180,37
605,45	21149,67
605,90	21037,47
606,35	20889,17
606,80	20810,77
607,25	20764,67
607,70	20615,67
608,15	20519,17
608,60	20350,77
609,04	20423,17
609,49	20226,77
609,94	20083,57
610,39	19842,97
610,84	19784,07
611,29	19746,47
611,74	19562,07
612,19	19517,27
612,64	19373,17
613,08	19209,97
613,53	19066,07
613,98	18952,57
614,43	18902,37
614,88	18757,07
615,33	18635,87
615,78	18524,97
616,22	18450,77
616,67	18283,77
617,12	18117,37
617,57	18025,17
618,02	17869,47
618,47	17857,87
618,91	17668,77
619,36	17530,77
619,81	17508,17
620,26	17242,97
620,71	17146,47
621,16	17062,57
621,60	16938,87
622,05	16810,77
622,50	16677,37
622,95	16544,17
623,40	16404,97
623,84	16316,37
624,29	16210,77
624,74	15996,87
625,19	15921,97
625,64	15757,67
626,08	15686,47
626,53	15553,27
626,98	15445,67
627,43	15305,87
627,87	15213,87
628,32	15093,87
628,77	14960,97
629,22	14873,87
629,66	14721,77
630,11	14659,27
630,56	14540,97
631,01	14397,27
631,46	14279,77
631,90	14218,27
632,35	14108,57
632,80	13996,57
633,25	13951,67
633,69	13812,07
634,14	13764,17
634,59	13665,07
635,03	13488,17
635,48	13452,87
635,93	13367,07
636,38	13277,07
636,82	13195,27
637,27	13024,87
637,72	12969,47
638,16	12844,27
638,61	12745,57
639,06	12638,87
639,51	12568,27
639,95	12423,67
640,40	12358,37
640,85	12212,27
641,29	12149,07
641,74	12055,47
642,19	11885,57
642,63	11838,07
643,08	11734,97
643,53	11612,37
643,97	11588,47
644,42	11486,57
644,87	11348,27
645,31	11297,97
645,76	11158,67
646,21	11063,27
646,65	11002,07
647,10	10931,67
647,55	10777,77
647,99	10677,87
648,44	10601,37
648,89	10477,37
649,33	10405,67
649,78	10376,97
650,23	10247,37
650,67	10147,37
651,12	10060,47
651,56	9964,27
652,01	9869,87
652,46	9824,37
652,90	9757,57
653,35	9681,87
653,80	9576,17
654,24	9499,67
654,69	9351,77
655,13	9302,37
655,58	9213,07
656,03	9256,97
656,47	9078,17
656,92	8977,97
657,36	8874,07
657,81	8799,17
658,26	8667,77
658,70	8616,97
659,15	8553,77
659,59	8481,37
660,04	8434,17
660,48	8359,67
660,93	8244,67
661,38	8169,17
661,82	8118,07
662,27	7966,77
662,71	7918,47
663,16	7856,17
663,60	7778,07
664,05	7721,57
664,49	7657,07
664,94	7542,37
665,38	7613,97
665,83	7369,87
666,28	7345,77
666,72	7247,87
667,17	7184,37
667,61	7138,27
668,06	7046,97
668,50	6948,67
668,95	6939,97
669,39	6817,57
669,84	6731,77
670,28	6691,67
670,73	6589,67
671,17	6566,27
671,62	6509,97
672,06	6447,87
672,51	6389,77
672,95	6352,07
673,40	6272,77
673,84	6129,07
674,29	6121,27
674,73	6040,07
675,18	6079,77
675,62	5907,47
676,07	5876,67
676,51	5820,07
676,95	5722,77
677,40	5694,57
677,84	5673,27
678,29	5549,57
678,73	5514,77
679,18	5509,27
679,62	5502,87
680,07	5369,47
680,51	5298,17
680,96	5201,37
681,40	5154,47
681,84	5106,87
682,29	5066,57
682,73	5004,47
683,18	4929,57
683,62	4982,47
684,07	4846,67
684,51	4781,07
684,95	4753,37
685,40	4686,67
685,84	4622,47
686,29	4580,07
686,73	4518,77
687,17	4468,17
687,62	4455,07
688,06	4421,97
688,51	4386,87
688,95	4315,87
689,39	4245,97
689,84	4232,97
690,28	4171,77
690,73	4134,47
691,17	4101,37
691,61	4047,07
692,06	3987,87
692,50	3956,17
692,94	3884,77
693,39	3857,17
693,83	3821,37
694,27	3872,47
694,72	3750,97
695,16	3680,97
695,60	3661,57
696,05	3608,37
696,49	3558,57
696,94	3519,77
697,38	3467,27
697,82	3455,67
698,27	3416,67
698,71	3421,77
699,15	3378,27
699,59	3311,17
700,04	3285,67
700,48	3360,87
700,92	3199,07
701,37	3149,87
701,81	3175,67
702,25	3071,27
702,70	3058,07
703,14	3055,27
703,58	2975,67
704,03	2998,87
704,47	2967,77
704,91	2891,27
705,35	2846,67
705,80	2842,97
706,24	2806,07
706,68	2866,47
707,13	2689,77
707,57	2732,07
708,01	2687,77
708,45	2645,07
708,90	2627,87
709,34	2592,77
709,78	2535,07
710,22	2553,17
710,67	2517,17
711,11	2504,97
711,55	2412,97
711,99	2448,47
712,44	2396,37
712,88	2384,27
713,32	2344,87
713,76	2310,47
714,21	2274,17
714,65	2234,27
715,09	2228,37
715,53	2204,57
715,97	2155,27
716,42	2168,77
716,86	2125,37
717,30	2119,07
717,74	2054,87
718,18	2097,17
718,63	2015,57
719,07	2001,27
719,51	2025,67
719,95	1968,77
720,39	1922,27
720,84	1912,17
721,28	1887,97
721,72	1859,87
722,16	1805,87
722,60	1778,07
723,04	1796,77
723,49	1811,57
723,93	1718,97
724,37	1706,27
724,81	1721,97
725,25	1676,87
725,69	1665,07
726,14	1669,27
726,58	1612,27
727,02	1632,67
727,46	1585,37
727,90	1542,07
728,34	1532,27
728,78	1561,77
729,23	1501,97
729,67	1531,87
730,11	1478,37
730,55	1499,87
730,99	1462,67
731,43	1455,07
731,87	1487,47
732,31	1394,37
732,76	1433,47
733,20	1401,07
733,64	1375,77
734,08	1400,47
734,52	1347,67
734,96	1372,07
735,40	1334,37
735,84	1332,67
736,28	1308,77
736,72	1293,57
737,16	1285,27
737,61	1242,37
738,05	1276,47
738,49	1255,77
738,93	1219,27
739,37	1245,77
739,81	1239,57
740,25	1205,97
740,69	1266,77
741,13	1159,17
741,57	1171,37
742,01	1181,27
742,45	1149,07
742,89	1120,47
743,33	1117,07
743,77	1112,47
744,21	1070,07
744,65	1123,97
745,09	1100,97
745,53	1049,77
745,98	1060,57
746,42	1052,77
746,86	1015,87
747,30	1014,77
747,74	982,87
748,18	977,87
748,62	978,57
749,06	1000,97
749,50	986,97
749,94	966,17
750,38	970,37
750,82	980,67
751,26	891,07
751,70	886,17
752,14	878,27
752,58	902,77
753,02	877,17
753,45	864,67
753,89	880,77
754,33	952,57
754,77	850,27
755,21	848,17
755,65	818,67
756,09	816,37
756,53	818,57
756,97	804,77
757,41	860,07
757,85	783,17
758,29	783,57
758,73	748,07
759,17	760,67
759,61	752,37
760,05	768,97
760,49	762,27
760,93	781,87
761,37	730,57
761,80	764,37
762,24	717,87
762,68	710,07
763,12	705,37
763,56	711,27
764,00	683,47
764,44	690,97
764,88	700,97
765,32	685,97
765,76	696,87
766,20	686,97
766,63	659,27
767,07	615,47
767,51	639,37
767,95	657,07
768,39	633,17
768,83	618,27
769,27	622,67
769,71	638,47
770,14	597,07
770,58	592,17
771,02	582,97
771,46	595,97
771,90	577,97
772,34	583,97
772,78	595,57
773,21	566,97
773,65	608,67
774,09	546,57
774,53	555,27
774,97	535,27
775,41	517,17
775,84	553,67
776,28	532,67
776,72	534,97
777,16	494,77
777,60	510,87
778,04	501,27
778,47	463,17
778,91	493,67
779,35	472,37
779,79	506,37
780,23	491,67
780,66	467,97
781,10	476,37
781,54	465,17
781,98	488,87
782,42	478,47
782,85	462,47
783,29	463,17
783,73	534,17
784,17	490,67
784,61	440,97
785,04	471,47
785,48	458,77
785,92	424,17
786,36	440,17
786,79	409,37
787,23	429,37
787,67	453,97
788,11	449,37
788,54	414,07
788,98	399,87
789,42	398,27
789,86	383,77
790,29	413,97
790,73	421,67
791,17	422,97
791,60	374,97
792,04	377,17
792,48	401,57
792,92	373,77
793,35	382,57
793,79	364,87
794,23	383,77
794,67	355,97
795,10	353,37
795,54	385,77
795,98	348,77
796,41	359,07
796,85	341,57
797,29	471,87
797,72	379,87
798,16	355,97
798,60	356,67
799,03	348,37
799,47	323,87
799,91	355,67
800,34	320,37
800,78	337,67
801,22	319,37
801,65	303,27
802,09	319,77
802,53	358,47
802,96	329,47
803,40	311,47
803,84	364,27
804,27	326,37
804,71	291,97
805,15	317,77
805,58	313,07
806,02	284,37
806,46	326,57
806,89	338,57
807,33	314,57
807,76	304,17
808,20	289,37
808,64	281,67
809,07	340,77
809,51	363,97
809,95	335,17
810,38	314,77
810,82	354,27
811,25	282,37
811,69	289,47
812,13	254,27
812,56	290,17
813,00	269,47
813,43	256,87
813,87	253,77
814,30	275,17
814,74	310,57
815,18	362,07
815,61	265,37
816,05	251,67
816,48	279,57
816,92	322,07
817,35	282,87
817,79	273,77
818,23	280,87
818,66	270,27
819,10	258,17
819,53	231,77
819,97	234,17
820,40	238,87
820,84	275,17
821,27	247,77
821,71	276,97
822,14	247,87
822,58	260,37
823,01	275,57
823,45	242,07
823,88	254,27
824,32	225,67
824,75	243,17
825,19	226,47
825,63	270,57
826,06	220,67
826,50	230,07
826,93	232,97
827,37	207,37
827,80	237,27
828,23	228,07
828,67	241,37
829,10	247,97
829,54	208,37
829,97	219,47
830,41	178,57
830,84	225,87
831,28	241,27
831,71	248,77
832,15	206,17
832,58	246,57
833,02	219,37
833,45	206,87
833,89	260,37
834,32	217,57
834,75	285,97
835,19	247,77
835,62	235,97
836,06	192,87
836,49	204,57
836,93	205,17
837,36	232,67
837,79	228,07
838,23	208,77
838,66	187,27
839,10	235,17
839,53	200,27
839,97	217,37
840,40	203,77
840,83	235,17
841,27	186,67
841,70	198,97
842,14	215,97
842,57	205,67
843,00	252,67
843,44	262,97
843,87	212,37
844,31	227,47
844,74	162,77
845,17	178,17
845,61	170,87
846,04	191,37
846,47	215,07
846,91	201,07
847,34	216,97
847,77	201,17
848,21	184,87
848,64	209,37
849,08	197,07
849,51	219,97
849,94	178,37
850,38	172,87
850,81	193,67
851,24	179,07
851,68	178,17
852,11	175,87
852,54	206,17
852,98	218,97
853,41	205,77
853,84	174,47
854,28	218,47
854,71	170,27
855,14	193,47
855,57	220,07
856,01	171,87
856,44	177,17
856,87	206,27
857,31	167,57
857,74	205,27
858,17	160,57
858,61	170,97
859,04	213,67
859,47	216,87
859,90	177,87
860,34	193,17
860,77	186,27
861,20	157,87
861,63	207,17
862,07	149,87
862,50	160,57
862,93	187,77
863,37	180,97
863,80	183,07
864,23	198,87
864,66	164,67
865,10	166,87
865,53	194,77
865,96	158,57
866,39	168,77
866,82	192,17
867,26	158,87
867,69	178,37
868,12	170,67
868,55	157,57
868,99	171,07
869,42	143,27
869,85	192,27
870,28	149,07
870,71	175,97
871,15	167,77
871,58	159,67
872,01	182,27
872,44	163,57
872,87	209,57
873,31	249,97
873,74	151,17
874,17	163,27
874,60	173,37
875,03	157,17
875,47	181,67
875,90	180,67
876,33	163,07
876,76	194,67
877,19	182,27
877,62	165,67
878,06	150,47
878,49	190,77
878,92	132,37
879,35	179,37
879,78	164,87
880,21	157,97
880,64	167,27
881,08	159,47
881,51	164,17
881,94	163,97
882,37	208,67
882,80	143,27
883,23	146,87
883,66	159,17
884,09	175,77
884,53	184,97
884,96	159,27
885,39	157,67
885,82	157,97
886,25	154,37
886,68	132,17
887,11	177,67
887,54	163,27
887,97	174,17
888,40	179,07
888,84	149,67
889,27	146,07
889,70	214,57
890,13	142,97
890,56	144,77
890,99	163,77
891,42	148,67
891,85	253,17
892,28	133,07
892,71	183,57
893,14	146,57
893,57	177,77
894,00	173,27
894,43	129,97
894,86	141,07
895,29	149,87
895,73	128,87
896,16	143,57
896,59	165,07
897,02	144,27
897,45	167,47
897,88	147,97
898,31	141,97
898,74	162,17
899,17	171,47
899,60	138,77
900,03	130,77
900,46	140,27
900,89	157,77
901,32	184,17
901,75	139,87
902,18	135,27
902,61	139,87
903,04	169,27
903,47	166,57
903,90	145,37
904,33	201,07
904,76	212,27
905,19	140,67
905,62	145,67
906,05	198,77
906,48	130,87
906,91	160,97
907,34	135,77
907,76	146,57
908,19	124,87
908,62	183,97
909,05	145,67
909,48	175,27
909,91	159,97
910,34	140,37
910,77	157,67
911,20	188,57
911,63	139,17
912,06	127,37
912,49	162,07
912,92	151,17
913,35	145,67
913,78	139,87
914,21	148,77
914,63	161,07
915,06	140,17
915,49	160,37
915,92	159,37
916,35	145,67
916,78	120,87
917,21	126,37
917,64	140,97
918,07	134,07
918,50	173,27
918,92	136,47
919,35	177,07
919,78	135,57
920,21	177,57
920,64	137,47
921,07	146,07
921,50	140,97
921,93	164,57
922,35	168,67
922,78	149,57
923,21	188,87
923,64	164,47
924,07	134,47
924,50	128,37
924,92	121,07
925,35	149,17
925,78	182,17
926,21	161,07
926,64	116,77
927,07	161,87
927,49	126,67
927,92	158,77
928,35	207,07
928,78	135,47
929,21	163,77
929,64	121,17
930,06	212,97
930,49	146,87
930,92	118,47
931,35	164,67
931,78	133,77
932,20	154,17
932,63	163,87
933,06	135,17
933,49	150,57
933,92	110,57
934,34	187,07
934,77	169,57
935,20	215,37
935,63	145,87
936,05	174,27
936,48	169,57
936,91	155,97
937,34	158,47
937,76	115,97
938,19	133,57
938,62	125,17
939,05	146,67
939,47	121,27
939,90	163,47
940,33	126,87
940,76	137,07
941,18	151,77
941,61	124,57
942,04	139,07
942,47	160,37
942,89	198,87
943,32	132,87
943,75	167,57
944,17	127,67
944,60	141,37
945,03	165,77
945,46	117,77
945,88	111,57
946,31	153,97
946,74	134,67
947,16	157,27
947,59	145,07
948,02	143,97
948,44	146,57
948,87	175,57
949,30	135,97
949,72	141,17
950,15	152,57
950,58	103,27
951,00	118,07
951,43	122,67
951,86	214,47
952,28	170,97
952,71	131,97
953,14	131,87
953,56	147,37
953,99	115,77
954,42	160,37
954,84	132,97
955,27	190,77
955,70	116,27
956,12	131,77
956,55	129,37
956,98	124,27
957,40	130,57
957,83	149,87
958,25	122,87
958,68	159,57
959,11	225,47
959,53	119,87
959,96	157,77
960,38	144,77
960,81	124,97
961,24	128,47
961,66	127,97
962,09	102,37
962,51	129,07
962,94	158,47
963,37	160,17
963,79	159,87
964,22	164,47
964,64	123,77
965,07	149,27
965,49	134,27
965,92	140,37
966,35	135,97
966,77	124,87
967,20	166,57
967,62	122,57
968,05	139,77
968,47	156,07
968,90	125,77
969,32	127,57
969,75	160,77
970,17	258,67
970,60	155,37
971,03	141,77
971,45	145,07
971,88	122,87
972,30	129,27
972,73	154,77
973,15	131,27
973,58	145,37
974,00	111,67
974,43	115,47
974,85	137,07
975,28	155,17
975,70	136,97
976,13	155,37
976,55	139,37
976,98	124,47
977,40	128,27
977,83	124,17
978,25	150,27
978,68	117,37
979,10	150,57
979,53	142,37
979,95	141,07
980,37	132,47
980,80	128,47
981,22	161,57
981,65	155,57
982,07	125,87
982,50	153,47
982,92	158,57
983,35	132,17
983,77	137,77
984,20	131,57
984,62	140,07
985,04	127,17
985,47	162,17
985,89	160,47
986,32	119,97
986,74	103,27
987,17	132,47
987,59	145,57
988,01	134,67
988,44	130,67
988,86	145,97
989,29	134,87
989,71	148,27
990,13	127,77
990,56	147,57
990,98	141,17
991,41	126,47
991,83	143,47
992,25	141,27
992,68	146,17
993,10	179,87
993,53	137,57
993,95	117,77
994,37	138,47
994,80	126,17
995,22	129,27
995,64	154,87
996,07	168,77
996,49	144,37
996,91	143,37
997,34	109,87
997,76	102,77
998,18	98,27
998,61	175,07
999,03	161,37
999,45	127,97
999,88	146,87
1000,30	114,07
1000,72	187,47
1001,15	147,07
1001,57	142,17
1001,99	170,37
1002,42	113,87
1002,84	137,37
1003,26	154,07
1003,69	137,07
1004,11	144,27
1004,53	138,77
1004,96	155,87
1005,38	119,57
1005,80	141,97
1006,22	144,57
1006,65	173,37
1007,07	136,07
1007,49	119,77
1007,92	154,27
1008,34	130,67
1008,76	118,07
1009,18	110,27
1009,61	132,77
1010,03	123,47
1010,45	233,27
1010,87	165,87
1011,30	159,17
1011,72	142,37
1012,14	151,87
1012,56	163,37
1012,99	130,77
1013,41	156,37
1013,83	150,57
1014,25	142,27
1014,68	149,97
1015,10	116,47
1015,52	172,07
1015,94	110,37
1016,37	161,87
1016,79	121,27
1017,21	137,07
1017,63	118,47
1018,05	154,77
1018,48	133,87
1018,90	135,97
1019,32	141,47
1019,74	101,37
1020,16	215,37
1020,59	173,27
1021,01	160,27
1021,43	131,57
1021,85	137,97
1022,27	142,87
1022,69	153,57
1023,12	155,57
1023,54	143,97
1023,96	234,17
1024,38	170,57
1024,80	158,37
1025,22	153,97
1025,65	148,27
1026,07	149,27
1026,49	150,17
1026,91	124,77
1027,33	120,57
1027,75	201,97
1028,17	162,87
1028,60	143,07
1029,02	138,67
1029,44	141,57
1029,86	135,27
1030,28	204,37
1030,70	148,47
1031,12	137,47
1031,54	156,37
1031,97	178,47
1032,39	118,87
1032,81	148,27
1033,23	165,17
1033,65	137,27
1034,07	158,27
1034,49	119,57
1034,91	128,17
1035,33	145,37
1035,75	163,17
1036,18	129,77
1036,60	192,57
1037,02	133,57
1037,44	131,27
1037,86	151,37
1038,28	111,87
1038,70	154,17
1039,12	167,67
1039,54	161,67
1039,96	172,77
1040,38	180,27
1040,80	138,37
1041,22	135,47
1041,64	152,67
1042,06	136,67
1042,48	183,47
1042,90	177,57
1043,32	167,27
1043,74	168,57
1044,17	142,77
1044,59	165,77
1045,01	125,47
1045,43	139,07
1045,85	133,47
1046,27	122,97
1046,69	146,47
1047,11	156,57
1047,53	123,97
1047,95	155,77
1048,37	169,17
1048,79	119,47
1049,21	168,97
1049,63	163,97
1050,05	165,07
1050,47	139,87
1050,89	143,07
1051,31	157,47
1051,72	163,97
1052,14	186,57
1052,56	178,47
1052,98	148,47
1053,40	167,27
1053,82	110,77
1054,24	148,07
1054,66	110,77
1055,08	146,87
1055,50	133,07
1055,92	154,17
1056,34	157,97
1056,76	197,67
1057,18	172,17
1057,60	174,17
1058,02	147,77
1058,44	255,57
1058,86	128,87
1059,28	164,07
1059,69	169,27
1060,11	145,57
1060,53	142,07
1060,95	135,27
1061,37	169,97
1061,79	149,07
1062,21	133,37
1062,63	170,07
1063,05	196,07
1063,47	152,97
1063,88	149,27
1064,30	136,87
1064,72	183,37
1065,14	168,87
1065,56	138,27
1065,98	132,37
1066,40	121,07
1066,82	164,67
1067,23	151,17
1067,65	149,87
1068,07	158,87
1068,49	147,57
1068,91	191,17
1069,33	151,47
1069,75	136,17
1070,16	122,07
1070,58	176,27
1071,00	175,07
1071,42	173,57
1071,84	150,87
1072,26	168,07
1072,67	137,67
1073,09	134,77
1073,51	130,37
1073,93	167,57
1074,35	140,87
1074,77	127,87
1075,18	145,07
1075,60	147,47
1076,02	151,77
1076,44	141,57
1076,86	130,97
1077,27	148,27
1077,69	172,07
1078,11	141,67
1078,53	174,87
1078,94	198,17
1079,36	107,77
1079,78	164,47
1080,20	148,37
1080,62	151,17
1081,03	160,77
1081,45	154,97
1081,87	147,97
1082,29	167,27
1082,70	153,87
1083,12	144,67
1083,54	155,77
1083,96	158,57
1084,37	180,87
1084,79	150,97
1085,21	141,77
1085,63	184,47
1086,04	143,27
1086,46	135,47
1086,88	159,57
1087,30	124,17
1087,71	168,07
1088,13	1492,67
1088,55	147,67
1088,96	134,97
1089,38	147,87
1089,80	146,67
1090,22	187,97
1090,63	150,67
1091,05	128,97
1091,47	157,67
1091,88	143,97
1092,30	134,27
1092,72	155,57
1093,13	146,47
1093,55	147,77
1093,97	138,87
1094,38	151,77
1094,80	150,27
1095,22	144,37
1095,63	139,37
1096,05	156,37
1096,47	165,37
1096,88	132,87
1097,30	152,67
1097,72	136,27
1098,13	166,27
1098,55	156,37
1098,97	173,57
1099,38	142,17
1099,80	145,97
1100,21	130,97
1100,63	139,77
1101,05	142,17
1101,46	152,27
1101,88	125,57
1102,30	138,87
1102,71	152,17
1103,13	154,87
1103,54	155,77
1103,96	139,47
1104,38	198,17
1104,79	106,67
1105,21	146,97
1105,62	146,87
1106,04	134,37
1106,46	142,87
1106,87	112,37
1107,29	126,17
1107,70	172,67
1108,12	116,57
1108,54	165,67
1108,95	159,27
1109,37	159,47
1109,78	104,47
1110,20	135,17
1110,61	121,17
1111,03	121,17
1111,44	121,17
1111,86	121,17
1112,28	121,17
1112,69	121,17
1113,11	121,17
1113,52	121,17
1113,94	121,17
1114,35	121,17
1114,77	121,17
1115,18	121,17
1115,60	121,17
1116,01	121,17
1116,43	121,17
1116,84	121,17
1117,26	121,17
1117,67	121,17
1118,09	121,17
1118,50	121,17
1118,92	121,17
>>>>>End Processed Spectral Data<<<<<
