SpectraSuite Data File
++++++++++++++++++++++++++++++++++++
Date: Wed Nov 27 16:39:17 EET 2013
User: OO Maya
Dark Spectrum Present: No
Reference Spectrum Present: No
Number of Sampled Component Spectra: 1
Spectrometers: MAYP11278
Integration Time (usec): 30000 (MAYP11278)
Spectra Averaged: 5 (MAYP11278)
Boxcar Smoothing: 0 (MAYP11278)
Correct for Electrical Dark: No (MAYP11278)
Strobe/Lamp Enabled: No (MAYP11278)
Correct for Detector Non-linearity: No (MAYP11278)
Correct for Stray Light: No (MAYP11278)
Number of Pixels in Processed Spectrum: 2068
>>>>>Begin Processed Spectral Data<<<<<
188,05	2294,40
188,53	2217,00
189,01	2182,60
189,49	2185,00
189,96	2228,20
190,44	2228,80
190,92	2230,80
191,40	2236,40
191,88	2233,00
192,36	2235,40
192,83	2236,80
193,31	2232,40
193,79	2234,40
194,27	2233,40
194,75	2235,40
195,23	2232,40
195,70	2234,80
196,18	2234,40
196,66	2232,60
197,14	2241,20
197,62	2234,20
198,09	2229,60
198,57	2231,60
199,05	2229,20
199,53	2238,60
200,01	2235,20
200,48	2231,20
200,96	2230,60
201,44	2234,20
201,92	2231,00
202,39	2234,80
202,87	2228,60
203,35	2232,80
203,83	2233,80
204,31	2234,20
204,78	2237,00
205,26	2229,40
205,74	2233,60
206,22	2245,00
206,69	2230,40
207,17	2235,40
207,65	2237,00
208,13	2232,80
208,60	2236,80
209,08	2231,60
209,56	2234,80
210,04	2231,80
210,51	2237,40
210,99	2232,20
211,47	2236,20
211,94	2229,80
212,42	2238,40
212,90	2238,60
213,38	2234,60
213,85	2230,00
214,33	2239,60
214,81	2233,00
215,29	2239,00
215,76	2239,40
216,24	2236,60
216,72	2235,00
217,19	2232,60
217,67	2232,20
218,15	2234,40
218,62	2239,40
219,10	2232,40
219,58	2233,40
220,05	2232,00
220,53	2235,20
221,01	2243,20
221,49	2231,40
221,96	2239,40
222,44	2234,80
222,92	2237,00
223,39	2239,00
223,87	2235,20
224,35	2238,00
224,82	2229,20
225,30	2230,00
225,78	2236,00
226,25	2234,40
226,73	2232,40
227,21	2239,00
227,68	2233,00
228,16	2238,20
228,63	2236,20
229,11	2237,60
229,59	2235,00
230,06	2236,00
230,54	2231,60
231,02	2241,60
231,49	2235,00
231,97	2235,80
232,45	2234,60
232,92	2233,00
233,40	2237,00
233,87	2233,60
234,35	2243,20
234,83	2235,00
235,30	2235,60
235,78	2234,40
236,25	2233,20
236,73	2234,40
237,21	2238,60
237,68	2232,80
238,16	2235,80
238,63	2237,80
239,11	2237,20
239,59	2235,80
240,06	2230,60
240,54	2234,60
241,01	2232,20
241,49	2235,40
241,96	2233,80
242,44	2240,60
242,92	2238,40
243,39	2232,80
243,87	2232,40
244,34	2238,40
244,82	2241,60
245,29	2233,60
245,77	2238,00
246,24	2239,80
246,72	2231,80
247,20	2233,60
247,67	2236,40
248,15	2234,00
248,62	2236,00
249,10	2229,00
249,57	2235,60
250,05	2236,60
250,52	2237,40
251,00	2238,40
251,47	2238,40
251,95	2242,20
252,42	2235,00
252,90	2235,40
253,37	2234,00
253,85	2234,00
254,32	2236,80
254,80	2231,60
255,27	2234,60
255,75	2237,20
256,22	2236,40
256,70	2236,20
257,17	2232,20
257,65	2238,00
258,12	2242,60
258,60	2236,40
259,07	2232,80
259,55	2236,20
260,02	2239,60
260,50	2238,20
260,97	2236,80
261,45	2234,00
261,92	2238,00
262,40	2234,00
262,87	2237,60
263,35	2240,40
263,82	2234,60
264,30	2237,20
264,77	2239,60
265,25	2236,40
265,72	2234,60
266,19	2230,60
266,67	2238,60
267,14	2230,60
267,62	2235,00
268,09	2236,60
268,57	2239,20
269,04	2235,40
269,51	2231,80
269,99	2235,40
270,46	2240,60
270,94	2239,80
271,41	2230,60
271,89	2239,60
272,36	2233,80
272,83	2229,80
273,31	2227,40
273,78	2242,00
274,26	2247,40
274,73	2238,40
275,20	2238,20
275,68	2230,80
276,15	2232,80
276,63	2236,00
277,10	2235,80
277,57	2235,00
278,05	2234,40
278,52	2233,80
279,00	2249,20
279,47	2236,20
279,94	2234,20
280,42	2249,80
280,89	2235,60
281,36	2244,80
281,84	2234,20
282,31	2238,80
282,78	2234,40
283,26	2231,20
283,73	2236,60
284,21	2233,20
284,68	2233,40
285,15	2238,20
285,63	2236,20
286,10	2236,00
286,57	2235,80
287,05	2234,20
287,52	2236,20
287,99	2239,40
288,47	2237,40
288,94	2238,60
289,41	2233,40
289,89	2242,00
290,36	2236,00
290,83	2234,40
291,30	2235,00
291,78	2242,00
292,25	2244,40
292,72	2229,00
293,20	2238,80
293,67	2233,60
294,14	2237,80
294,62	2234,60
295,09	2232,60
295,56	2242,40
296,03	2236,60
296,51	2240,80
296,98	2242,60
297,45	2239,60
297,93	2239,80
298,40	2241,60
298,87	2234,20
299,34	2242,20
299,82	2235,40
300,29	2239,80
300,76	2239,40
301,23	2239,80
301,71	2239,20
302,18	2237,80
302,65	2232,80
303,12	2241,00
303,60	2238,40
304,07	2235,60
304,54	2238,60
305,01	2235,40
305,49	2237,40
305,96	2239,40
306,43	2238,20
306,90	2240,60
307,38	2239,60
307,85	2238,60
308,32	2240,40
308,79	2235,80
309,27	2241,00
309,74	2239,80
310,21	2234,00
310,68	2239,60
311,15	2237,00
311,63	2234,20
312,10	2240,60
312,57	2237,40
313,04	2243,40
313,51	2237,20
313,99	2233,40
314,46	2237,40
314,93	2234,00
315,40	2231,00
315,87	2245,80
316,34	2241,80
316,82	2238,20
317,29	2240,40
317,76	2237,60
318,23	2246,00
318,70	2235,00
319,17	2238,20
319,65	2234,40
320,12	2234,40
320,59	2241,20
321,06	2236,40
321,53	2236,60
322,00	2232,60
322,48	2236,00
322,95	2242,00
323,42	2234,80
323,89	2240,80
324,36	2232,20
324,83	2235,80
325,30	2233,80
325,78	2234,00
326,25	2235,00
326,72	2233,00
327,19	2242,60
327,66	2236,80
328,13	2237,60
328,60	2235,80
329,07	2235,00
329,54	2232,80
330,02	2235,20
330,49	2235,60
330,96	2242,40
331,43	2235,20
331,90	2241,20
332,37	2237,80
332,84	2237,40
333,31	2234,20
333,78	2238,40
334,25	2242,60
334,72	2239,20
335,20	2238,60
335,67	2241,20
336,14	2236,40
336,61	2237,00
337,08	2235,40
337,55	2238,80
338,02	2234,40
338,49	2236,60
338,96	2235,80
339,43	2239,20
339,90	2232,80
340,37	2237,40
340,84	2231,00
341,31	2232,40
341,78	2237,80
342,25	2234,00
342,72	2230,40
343,19	2241,40
343,67	2232,00
344,14	2235,00
344,61	2238,00
345,08	2236,80
345,55	2233,00
346,02	2236,20
346,49	2236,60
346,96	2233,60
347,43	2241,20
347,90	2235,20
348,37	2243,20
348,84	2236,20
349,31	2230,20
349,78	2236,80
350,25	2236,00
350,72	2238,40
351,19	2235,20
351,66	2237,40
352,13	2243,00
352,60	2234,80
353,07	2236,80
353,54	2239,40
354,01	2239,80
354,48	2240,40
354,94	2236,80
355,41	2238,20
355,88	2240,00
356,35	2234,60
356,82	2237,60
357,29	2231,20
357,76	2245,80
358,23	2240,60
358,70	2235,40
359,17	2236,80
359,64	2239,80
360,11	2237,80
360,58	2241,80
361,05	2239,60
361,52	2235,20
361,99	2236,00
362,46	2237,20
362,93	2238,20
363,39	2233,60
363,86	2240,00
364,33	2236,40
364,80	2238,00
365,27	2239,60
365,74	2236,40
366,21	2237,20
366,68	2244,40
367,15	2236,00
367,62	2289,60
368,09	2236,00
368,55	2235,60
369,02	2242,80
369,49	2237,20
369,96	2241,80
370,43	2240,00
370,90	2235,60
371,37	2240,60
371,84	2238,40
372,31	2235,00
372,77	2234,40
373,24	2238,20
373,71	2237,80
374,18	2237,00
374,65	2240,00
375,12	2239,40
375,59	2234,40
376,05	2240,00
376,52	2235,40
376,99	2233,40
377,46	2239,00
377,93	2238,00
378,40	2237,20
378,86	2237,80
379,33	2240,60
379,80	2235,80
380,27	2243,20
380,74	2241,00
381,21	2237,00
381,67	2241,20
382,14	2242,80
382,61	2233,00
383,08	2240,00
383,55	2236,40
384,02	2238,00
384,48	2240,60
384,95	2252,40
385,42	2240,40
385,89	2238,80
386,36	2239,40
386,82	2242,80
387,29	2239,40
387,76	2232,20
388,23	2239,00
388,69	2240,40
389,16	2237,80
389,63	2238,60
390,10	2238,20
390,57	2239,00
391,03	2236,60
391,50	2238,40
391,97	2236,60
392,44	2238,20
392,90	2235,20
393,37	2237,40
393,84	2237,80
394,31	2237,80
394,77	2243,20
395,24	2235,80
395,71	2234,60
396,18	2249,80
396,64	2234,80
397,11	2237,00
397,58	2234,60
398,05	2232,40
398,51	2235,60
398,98	2235,20
399,45	2232,60
399,92	2237,20
400,38	2232,80
400,85	2238,20
401,32	2234,60
401,78	2244,00
402,25	2236,40
402,72	2236,80
403,18	2232,20
403,65	2243,40
404,12	2242,20
404,59	2242,80
405,05	2241,80
405,52	2235,00
405,99	2234,40
406,45	2237,20
406,92	2236,80
407,39	2245,40
407,85	2238,20
408,32	2236,00
408,79	2232,80
409,25	2231,60
409,72	2240,00
410,19	2234,00
410,65	2239,40
411,12	2236,60
411,59	2238,20
412,05	2234,80
412,52	2229,60
412,99	2241,40
413,45	2234,40
413,92	2234,80
414,39	2237,20
414,85	2236,00
415,32	2235,60
415,78	2240,60
416,25	2238,80
416,72	2238,20
417,18	2238,00
417,65	2236,80
418,12	2236,80
418,58	2238,80
419,05	2238,80
419,51	2241,00
419,98	2235,20
420,45	2242,60
420,91	2235,60
421,38	2239,80
421,84	2233,60
422,31	2240,80
422,78	2235,60
423,24	2238,20
423,71	2236,60
424,17	2238,00
424,64	2234,60
425,11	2238,40
425,57	2236,60
426,04	2242,40
426,50	2235,80
426,97	2240,20
427,43	2241,80
427,90	2239,80
428,37	2237,00
428,83	2242,00
429,30	2239,00
429,76	2238,80
430,23	2236,20
430,69	2244,60
431,16	2233,20
431,62	2235,20
432,09	2239,00
432,55	2238,20
433,02	2238,80
433,48	2241,20
433,95	2235,00
434,42	2236,40
434,88	2240,60
435,35	2236,40
435,81	2235,40
436,28	2236,80
436,74	2235,00
437,21	2239,80
437,67	2239,20
438,14	2239,00
438,60	2234,80
439,07	2233,80
439,53	2252,20
440,00	2238,80
440,46	2245,60
440,93	2237,40
441,39	2235,00
441,86	2236,80
442,32	2245,80
442,79	2233,80
443,25	2244,00
443,72	2241,00
444,18	2231,60
444,64	2238,80
445,11	2241,20
445,57	2240,00
446,04	2236,20
446,50	2241,80
446,97	2237,80
447,43	2238,00
447,90	2232,20
448,36	2236,20
448,83	2238,40
449,29	2235,80
449,75	2239,20
450,22	2237,80
450,68	2235,80
451,15	2235,00
451,61	2239,80
452,08	2239,00
452,54	2235,40
453,00	2242,60
453,47	2238,80
453,93	2237,80
454,40	2236,20
454,86	2244,40
455,32	2235,00
455,79	2236,60
456,25	2240,80
456,72	2238,80
457,18	2241,00
457,64	2236,80
458,11	2236,00
458,57	2237,20
459,04	2240,40
459,50	2238,00
459,96	2236,20
460,43	2234,20
460,89	2230,40
461,36	2242,20
461,82	2241,80
462,28	2237,20
462,75	2237,20
463,21	2238,60
463,67	2234,40
464,14	2236,20
464,60	2235,40
465,06	2238,00
465,53	2234,60
465,99	2243,80
466,45	2236,40
466,92	2235,00
467,38	2237,80
467,84	2237,40
468,31	2235,40
468,77	2237,80
469,23	2238,60
469,70	2230,40
470,16	2239,20
470,62	2237,20
471,09	2232,60
471,55	2234,00
472,01	2237,60
472,48	2237,60
472,94	2236,20
473,40	2239,80
473,87	2232,80
474,33	2235,20
474,79	2235,00
475,25	2232,40
475,72	2240,00
476,18	2236,20
476,64	2237,20
477,11	2235,40
477,57	2234,40
478,03	2242,40
478,49	2234,80
478,96	2240,20
479,42	2233,40
479,88	2244,00
480,35	2236,00
480,81	2234,60
481,27	2235,60
481,73	2231,40
482,20	2237,80
482,66	2235,80
483,12	2236,20
483,58	2236,40
484,05	2235,60
484,51	2245,40
484,97	2234,00
485,43	2235,00
485,89	2233,60
486,36	2235,80
486,82	2232,60
487,28	2239,40
487,74	2237,00
488,21	2232,20
488,67	2233,20
489,13	2237,60
489,59	2235,40
490,05	2237,00
490,52	2236,60
490,98	2234,60
491,44	2232,80
491,90	2234,00
492,36	2233,80
492,83	2239,00
493,29	2236,80
493,75	2238,20
494,21	2235,20
494,67	2236,40
495,14	2234,60
495,60	2233,80
496,06	2233,80
496,52	2233,60
496,98	2234,00
497,44	2239,60
497,91	2242,00
498,37	2236,60
498,83	2238,60
499,29	2236,00
499,75	2243,20
500,21	2234,00
500,67	2235,20
501,14	2239,00
501,60	2235,80
502,06	2243,00
502,52	2238,20
502,98	2233,80
503,44	2240,20
503,90	2243,80
504,37	2241,40
504,83	2239,00
505,29	2240,00
505,75	2236,40
506,21	2236,20
506,67	2240,40
507,13	2239,40
507,59	2238,40
508,05	2234,60
508,51	2236,00
508,98	2235,80
509,44	2238,20
509,90	2240,20
510,36	2237,00
510,82	2239,80
511,28	2240,00
511,74	2242,20
512,20	2235,60
512,66	2230,80
513,12	2237,20
513,58	2241,20
514,04	2235,80
514,51	2236,60
514,97	2243,40
515,43	2236,80
515,89	2236,20
516,35	2244,20
516,81	2239,40
517,27	2247,00
517,73	2240,20
518,19	2236,40
518,65	2251,20
519,11	2237,60
519,57	2236,40
520,03	2238,20
520,49	2236,40
520,95	2238,40
521,41	2243,80
521,87	2242,00
522,33	2235,20
522,79	2234,40
523,25	2243,40
523,71	2242,60
524,17	2236,00
524,63	2240,20
525,09	2243,00
525,55	2240,00
526,01	2242,00
526,47	2237,40
526,93	2234,00
527,39	2234,20
527,85	2237,60
528,31	2242,40
528,77	2244,20
529,23	2240,20
529,69	2236,60
530,15	2239,20
530,61	2239,40
531,07	2234,00
531,53	2241,20
531,99	2240,60
532,45	2240,60
532,91	2233,80
533,37	2240,40
533,83	2239,00
534,29	2237,20
534,75	2244,20
535,21	2237,20
535,67	2238,40
536,12	2238,00
536,58	2241,80
537,04	2234,00
537,50	2241,00
537,96	2238,60
538,42	2231,40
538,88	2246,20
539,34	2240,80
539,80	2257,80
540,26	2236,60
540,72	2247,80
541,18	2237,20
541,63	2238,00
542,09	2239,60
542,55	2243,00
543,01	2231,40
543,47	2249,80
543,93	2236,00
544,39	2242,80
544,85	2244,60
545,31	2238,60
545,76	2242,00
546,22	2243,20
546,68	2235,00
547,14	2240,60
547,60	2242,20
548,06	2241,00
548,52	2238,60
548,98	2238,40
549,43	2240,20
549,89	2244,60
550,35	2237,00
550,81	2237,60
551,27	2239,20
551,73	2240,00
552,19	2246,20
552,64	2233,60
553,10	2241,00
553,56	2239,20
554,02	2241,80
554,48	2239,40
554,93	2239,40
555,39	2243,40
555,85	2243,80
556,31	2245,00
556,77	2240,40
557,23	2239,00
557,68	2242,80
558,14	2245,60
558,60	2240,60
559,06	2240,80
559,52	2240,20
559,97	2241,60
560,43	2240,80
560,89	2240,60
561,35	2236,60
561,81	2241,40
562,26	2242,60
562,72	2241,20
563,18	2246,60
563,64	2243,00
564,09	2237,40
564,55	2245,40
565,01	2246,20
565,47	2239,40
565,92	2242,00
566,38	2242,80
566,84	2244,00
567,30	2243,40
567,75	2245,40
568,21	2248,20
568,67	2248,20
569,13	2247,20
569,58	2249,80
570,04	2249,40
570,50	2250,60
570,96	2251,00
571,41	2254,00
571,87	2250,80
572,33	2250,20
572,78	2255,60
573,24	2250,20
573,70	2252,20
574,16	2257,40
574,61	2263,00
575,07	2260,40
575,53	2259,40
575,98	2260,20
576,44	2258,00
576,90	2266,20
577,36	2265,20
577,81	2267,60
578,27	2264,40
578,73	2273,80
579,18	2272,40
579,64	2268,00
580,10	2273,80
580,55	2275,20
581,01	2276,60
581,47	2277,00
581,92	2276,00
582,38	2282,20
582,84	2283,20
583,29	2281,40
583,75	2289,60
584,21	2296,40
584,66	2295,60
585,12	2294,80
585,57	2304,60
586,03	2308,00
586,49	2311,80
586,94	2310,20
587,40	2310,20
587,86	2322,60
588,31	2318,60
588,77	2329,00
589,22	2337,00
589,68	2333,40
590,14	2345,60
590,59	2352,40
591,05	2356,40
591,51	2355,60
591,96	2370,00
592,42	2377,20
592,87	2382,20
593,33	2389,60
593,78	2399,60
594,24	2403,80
594,70	2410,60
595,15	2430,40
595,61	2431,00
596,06	2446,60
596,52	2456,60
596,98	2474,20
597,43	2486,20
597,89	2491,00
598,34	2495,60
598,80	2519,40
599,25	2529,00
599,71	2540,80
600,16	2559,20
600,62	2585,80
601,08	2592,20
601,53	2616,00
601,99	2616,20
602,44	2661,60
602,90	2668,00
603,35	2711,80
603,81	2722,80
604,26	2740,20
604,72	2776,60
605,17	2799,60
605,63	2821,80
606,08	2862,60
606,54	2881,00
606,99	2925,80
607,45	2964,40
607,90	2996,60
608,36	3034,00
608,81	3070,80
609,27	3110,20
609,72	3163,80
610,18	3223,40
610,63	3247,60
611,09	3316,20
611,54	3373,80
612,00	3417,20
612,45	3501,80
612,91	3551,00
613,36	3639,40
613,82	3689,20
614,27	3754,40
614,73	3850,80
615,18	3939,40
615,64	4002,20
616,09	4104,60
616,54	4195,80
617,00	4289,00
617,45	4384,00
617,91	4485,60
618,36	4600,00
618,82	4732,60
619,27	4853,80
619,72	4963,80
620,18	5109,60
620,63	5270,40
621,09	5440,40
621,54	5576,60
622,00	5742,80
622,45	5915,80
622,90	6110,20
623,36	6272,60
623,81	6508,00
624,27	6656,80
624,72	6907,40
625,17	7117,00
625,63	7334,80
626,08	7576,20
626,54	7844,60
626,99	8100,80
627,44	8345,00
627,90	8689,40
628,35	8941,40
628,81	9272,60
629,26	9607,80
629,71	9937,60
630,17	10294,40
630,62	10637,80
631,07	11032,60
631,53	11425,20
631,98	11875,00
632,43	12289,60
632,89	12706,80
633,34	13243,20
633,79	13686,80
634,25	14192,80
634,70	14766,00
635,15	15344,60
635,61	15945,20
636,06	16434,40
636,51	17144,80
636,97	17814,40
637,42	18423,40
637,87	19108,80
638,33	19762,60
638,78	20466,00
639,23	21249,60
639,69	21967,60
640,14	22718,80
640,59	23501,60
641,05	24305,40
641,50	25040,20
641,95	25912,20
642,40	26720,20
642,86	27556,00
643,31	28440,00
643,76	29280,60
644,22	30163,80
644,67	31148,60
645,12	32047,20
645,57	33088,40
646,03	34141,20
646,48	35161,80
646,93	36269,60
647,38	37363,00
647,84	38460,80
648,29	39722,40
648,74	40963,40
649,19	42191,40
649,65	43548,00
650,10	44923,20
650,55	46148,40
651,00	47318,00
651,46	48643,40
651,91	50107,40
652,36	51350,40
652,81	52670,60
653,27	53793,00
653,72	55031,40
654,17	55918,40
654,62	57067,80
655,07	57697,20
655,53	58724,20
655,98	59318,40
656,43	59860,60
656,88	60189,80
657,33	60081,80
657,79	60067,60
658,24	59648,80
658,69	58616,00
659,14	57523,80
659,59	56156,00
660,05	54548,20
660,50	52733,20
660,95	50611,60
661,40	48345,80
661,85	45878,80
662,30	43273,00
662,76	40712,20
663,21	38262,80
663,66	35846,40
664,11	33509,20
664,56	31260,80
665,01	29048,60
665,47	27015,60
665,92	25092,00
666,37	23311,40
666,82	21741,00
667,27	20202,00
667,72	18905,60
668,17	17655,60
668,62	16459,40
669,08	15378,80
669,53	14397,20
669,98	13482,60
670,43	12663,20
670,88	11927,40
671,33	11218,00
671,78	10563,20
672,23	9973,20
672,69	9346,00
673,14	8825,60
673,59	8312,80
674,04	7941,00
674,49	7504,00
674,94	7100,40
675,39	6743,80
675,84	6409,00
676,29	6105,20
676,74	5855,00
677,19	5538,20
677,64	5336,80
678,10	5097,00
678,55	4897,40
679,00	4689,00
679,45	4565,20
679,90	4362,80
680,35	4239,00
680,80	4111,00
681,25	3972,20
681,70	3860,00
682,15	3746,60
682,60	3647,20
683,05	3555,60
683,50	3501,00
683,95	3406,40
684,40	3336,40
684,85	3251,60
685,30	3194,00
685,75	3138,40
686,20	3069,40
686,65	3037,40
687,10	2991,60
687,55	2938,40
688,00	2900,00
688,45	2860,00
688,90	2834,80
689,35	2789,60
689,80	2752,00
690,25	2720,20
690,70	2705,60
691,15	2661,60
691,60	2648,80
692,05	2623,40
692,50	2614,00
692,95	2582,40
693,40	2573,40
693,85	2558,20
694,30	2541,00
694,75	2513,20
695,20	2513,00
695,65	2495,20
696,10	2485,20
696,55	2471,60
697,00	2462,00
697,45	2450,20
697,90	2434,20
698,35	2428,80
698,80	2419,60
699,24	2421,40
699,69	2402,20
700,14	2399,60
700,59	2398,40
701,04	2387,40
701,49	2389,20
701,94	2370,80
702,39	2371,40
702,84	2361,40
703,29	2352,60
703,74	2354,40
704,19	2350,20
704,63	2342,80
705,08	2344,60
705,53	2340,60
705,98	2328,00
706,43	2329,60
706,88	2330,00
707,33	2319,60
707,78	2318,20
708,22	2308,40
708,67	2309,80
709,12	2308,40
709,57	2302,60
710,02	2306,00
710,47	2304,40
710,92	2298,80
711,37	2302,00
711,81	2297,60
712,26	2295,80
712,71	2293,40
713,16	2305,00
713,61	2293,20
714,06	2297,00
714,50	2294,60
714,95	2298,40
715,40	2289,80
715,85	2289,60
716,30	2286,00
716,75	2287,00
717,19	2279,40
717,64	2277,80
718,09	2285,80
718,54	2288,80
718,99	2276,00
719,43	2276,60
719,88	2281,60
720,33	2281,40
720,78	2281,00
721,23	2280,60
721,67	2273,20
722,12	2279,60
722,57	2275,60
723,02	2271,40
723,47	2277,00
723,91	2277,20
724,36	2271,40
724,81	2272,80
725,26	2274,20
725,70	2271,20
726,15	2268,60
726,60	2272,80
727,05	2283,20
727,49	2264,60
727,94	2272,00
728,39	2276,60
728,84	2263,80
729,28	2274,00
729,73	2264,40
730,18	2271,20
730,63	2268,40
731,07	2260,00
731,52	2270,00
731,97	2270,60
732,41	2262,40
732,86	2261,20
733,31	2265,80
733,76	2265,60
734,20	2261,80
734,65	2266,20
735,10	2259,80
735,54	2262,00
735,99	2264,60
736,44	2257,60
736,89	2258,20
737,33	2254,40
737,78	2257,60
738,23	2250,40
738,67	2251,80
739,12	2256,40
739,57	2249,80
740,01	2255,00
740,46	2252,80
740,91	2247,60
741,35	2253,60
741,80	2254,20
742,25	2250,40
742,69	2248,20
743,14	2249,00
743,59	2248,40
744,03	2251,00
744,48	2252,80
744,92	2249,60
745,37	2250,00
745,82	2252,20
746,26	2248,60
746,71	2240,40
747,16	2247,40
747,60	2241,00
748,05	2248,00
748,49	2249,40
748,94	2247,00
749,39	2246,80
749,83	2253,40
750,28	2246,80
750,73	2242,20
751,17	2240,60
751,62	2243,20
752,06	2241,20
752,51	2245,40
752,95	2246,60
753,40	2243,00
753,85	2242,60
754,29	2238,40
754,74	2238,40
755,18	2239,00
755,63	2245,60
756,07	2241,40
756,52	2239,60
756,97	2242,60
757,41	2246,20
757,86	2240,00
758,30	2239,40
758,75	2242,40
759,19	2237,20
759,64	2237,00
760,08	2243,40
760,53	2242,20
760,98	2238,00
761,42	2243,40
761,87	2241,80
762,31	2240,20
762,76	2238,80
763,20	2240,40
763,65	2238,80
764,09	2239,20
764,54	2237,40
764,98	2241,00
765,43	2236,80
765,87	2240,60
766,32	2236,80
766,76	2239,20
767,21	2239,00
767,65	2239,00
768,10	2240,00
768,54	2238,80
768,99	2240,00
769,43	2246,00
769,88	2240,60
770,32	2235,40
770,77	2233,20
771,21	2233,40
771,65	2244,20
772,10	2239,60
772,54	2239,20
772,99	2233,60
773,43	2237,00
773,88	2235,40
774,32	2235,80
774,77	2239,40
775,21	2235,80
775,65	2239,60
776,10	2235,80
776,54	2239,20
776,99	2239,20
777,43	2240,40
777,88	2236,20
778,32	2241,80
778,76	2234,60
779,21	2237,80
779,65	2243,80
780,10	2237,60
780,54	2242,20
780,99	2240,20
781,43	2238,60
781,87	2236,60
782,32	2235,60
782,76	2232,00
783,20	2240,20
783,65	2239,00
784,09	2242,60
784,54	2236,60
784,98	2236,00
785,42	2236,80
785,87	2233,80
786,31	2236,20
786,75	2243,60
787,20	2237,20
787,64	2230,00
788,09	2235,00
788,53	2236,80
788,97	2232,60
789,42	2236,40
789,86	2238,40
790,30	2233,20
790,75	2231,60
791,19	2230,20
791,63	2242,40
792,08	2233,40
792,52	2238,60
792,96	2237,40
793,41	2250,00
793,85	2237,20
794,29	2239,80
794,74	2234,60
795,18	2233,80
795,62	2233,80
796,06	2237,40
796,51	2232,80
796,95	2236,00
797,39	2235,40
797,84	2231,60
798,28	2237,00
798,72	2236,60
799,16	2239,60
799,61	2235,80
800,05	2240,00
800,49	2238,00
800,94	2233,20
801,38	2234,20
801,82	2236,00
802,26	2232,00
802,71	2238,40
803,15	2239,20
803,59	2239,20
804,03	2238,00
804,48	2235,40
804,92	2234,40
805,36	2242,00
805,80	2242,40
806,25	2244,00
806,69	2239,20
807,13	2239,40
807,57	2234,40
808,01	2235,20
808,46	2234,60
808,90	2235,20
809,34	2236,20
809,78	2233,20
810,23	2234,20
810,67	2236,80
811,11	2238,60
811,55	2249,40
811,99	2231,60
812,44	2235,80
812,88	2239,80
813,32	2234,00
813,76	2237,00
814,20	2229,80
814,64	2237,40
815,09	2239,80
815,53	2234,00
815,97	2234,00
816,41	2237,80
816,85	2233,20
817,29	2235,60
817,74	2237,20
818,18	2235,80
818,62	2234,20
819,06	2234,20
819,50	2240,20
819,94	2232,20
820,39	2234,60
820,83	2235,60
821,27	2234,80
821,71	2235,20
822,15	2238,20
822,59	2232,60
823,03	2236,40
823,47	2237,00
823,92	2236,40
824,36	2234,40
824,80	2235,80
825,24	2237,80
825,68	2239,40
826,12	2236,80
826,56	2232,20
827,00	2233,20
827,44	2234,20
827,88	2240,00
828,33	2238,40
828,77	2235,40
829,21	2238,80
829,65	2237,00
830,09	2233,60
830,53	2237,20
830,97	2234,00
831,41	2239,20
831,85	2235,80
832,29	2234,60
832,73	2234,00
833,17	2236,40
833,61	2235,40
834,05	2240,80
834,49	2234,80
834,93	2231,40
835,37	2232,40
835,82	2237,40
836,26	2234,60
836,70	2235,40
837,14	2233,00
837,58	2239,80
838,02	2238,20
838,46	2231,20
838,90	2232,40
839,34	2238,60
839,78	2237,40
840,22	2236,00
840,66	2238,00
841,10	2240,20
841,54	2232,20
841,98	2237,00
842,42	2230,20
842,86	2232,20
843,30	2235,20
843,74	2236,60
844,18	2235,60
844,62	2237,40
845,06	2232,80
845,50	2236,60
845,94	2235,40
846,37	2240,60
846,81	2231,80
847,25	2235,80
847,69	2236,40
848,13	2236,20
848,57	2236,00
849,01	2232,00
849,45	2234,60
849,89	2242,80
850,33	2234,20
850,77	2232,00
851,21	2235,80
851,65	2233,40
852,09	2238,20
852,53	2234,40
852,97	2228,60
853,40	2229,40
853,84	2236,00
854,28	2230,00
854,72	2236,60
855,16	2232,60
855,60	2230,00
856,04	2239,00
856,48	2238,60
856,92	2235,00
857,36	2236,60
857,79	2238,20
858,23	2232,40
858,67	2236,20
859,11	2229,00
859,55	2229,60
859,99	2237,40
860,43	2232,20
860,87	2236,60
861,30	2237,60
861,74	2232,20
862,18	2234,00
862,62	2235,80
863,06	2230,80
863,50	2232,80
863,94	2241,40
864,37	2232,60
864,81	2234,80
865,25	2235,60
865,69	2230,40
866,13	2233,80
866,57	2233,20
867,00	2235,60
867,44	2231,00
867,88	2233,40
868,32	2235,00
868,76	2233,60
869,19	2239,20
869,63	2232,40
870,07	2240,60
870,51	2239,00
870,95	2234,00
871,38	2234,60
871,82	2239,40
872,26	2231,60
872,70	2234,40
873,14	2236,20
873,57	2235,40
874,01	2238,00
874,45	2240,80
874,89	2233,40
875,32	2229,80
875,76	2242,00
876,20	2226,40
876,64	2233,00
877,07	2234,40
877,51	2231,00
877,95	2234,20
878,39	2231,60
878,82	2235,20
879,26	2234,60
879,70	2241,80
880,14	2232,40
880,57	2231,80
881,01	2230,40
881,45	2232,00
881,89	2236,40
882,32	2237,40
882,76	2234,20
883,20	2231,40
883,63	2234,40
884,07	2233,00
884,51	2238,40
884,94	2232,40
885,38	2234,40
885,82	2237,00
886,26	2231,00
886,69	2233,00
887,13	2240,80
887,57	2227,00
888,00	2230,00
888,44	2240,20
888,88	2235,60
889,31	2245,00
889,75	2235,00
890,19	2238,60
890,62	2234,80
891,06	2235,00
891,50	2237,40
891,93	2232,00
892,37	2235,40
892,81	2237,80
893,24	2227,00
893,68	2236,40
894,11	2236,00
894,55	2234,20
894,99	2236,80
895,42	2232,00
895,86	2230,20
896,30	2237,20
896,73	2232,40
897,17	2237,00
897,60	2232,20
898,04	2231,60
898,48	2237,60
898,91	2236,80
899,35	2231,80
899,78	2227,80
900,22	2232,40
900,66	2234,60
901,09	2240,00
901,53	2233,60
901,96	2241,80
902,40	2239,60
902,84	2232,00
903,27	2236,40
903,71	2237,40
904,14	2233,00
904,58	2235,60
905,01	2235,60
905,45	2232,60
905,88	2230,80
906,32	2239,00
906,76	2234,60
907,19	2233,00
907,63	2233,20
908,06	2238,40
908,50	2235,80
908,93	2236,60
909,37	2232,20
909,80	2234,60
910,24	2236,40
910,67	2234,20
911,11	2233,60
911,54	2235,60
911,98	2231,40
912,41	2237,60
912,85	2233,80
913,28	2233,80
913,72	2234,80
914,15	2239,20
914,59	2233,40
915,02	2230,00
915,46	2234,80
915,89	2228,00
916,33	2234,40
916,76	2235,60
917,20	2236,20
917,63	2232,60
918,07	2236,00
918,50	2228,80
918,94	2234,40
919,37	2235,40
919,81	2237,80
920,24	2240,00
920,67	2237,80
921,11	2238,20
921,54	2241,20
921,98	2231,40
922,41	2233,40
922,85	2232,60
923,28	2236,20
923,72	2240,80
924,15	2234,00
924,58	2234,40
925,02	2234,40
925,45	2230,80
925,89	2234,40
926,32	2238,60
926,75	2233,00
927,19	2235,40
927,62	2228,80
928,06	2240,60
928,49	2235,40
928,92	2231,20
929,36	2235,40
929,79	2232,00
930,23	2233,00
930,66	2235,20
931,09	2230,40
931,53	2237,80
931,96	2229,20
932,39	2235,80
932,83	2238,00
933,26	2241,00
933,70	2231,60
934,13	2238,40
934,56	2237,00
935,00	2234,80
935,43	2235,80
935,86	2231,60
936,30	2236,60
936,73	2229,20
937,16	2234,80
937,60	2231,40
938,03	2234,80
938,46	2232,60
938,90	2233,80
939,33	2231,60
939,76	2226,60
940,19	2235,00
940,63	2240,00
941,06	2238,60
941,49	2230,40
941,93	2233,20
942,36	2236,20
942,79	2233,60
943,23	2232,00
943,66	2232,60
944,09	2230,60
944,52	2236,20
944,96	2242,40
945,39	2238,20
945,82	2238,20
946,26	2235,40
946,69	2235,60
947,12	2240,60
947,55	2234,20
947,99	2234,60
948,42	2238,20
948,85	2229,40
949,28	2230,00
949,72	2232,80
950,15	2240,20
950,58	2240,00
951,01	2233,40
951,45	2233,80
951,88	2235,60
952,31	2227,80
952,74	2236,40
953,17	2235,40
953,61	2240,80
954,04	2230,00
954,47	2234,80
954,90	2235,00
955,33	2231,40
955,77	2232,20
956,20	2235,40
956,63	2228,40
957,06	2233,20
957,49	2242,20
957,93	2233,40
958,36	2236,40
958,79	2232,20
959,22	2235,20
959,65	2235,00
960,08	2234,60
960,52	2230,80
960,95	2233,80
961,38	2236,00
961,81	2233,80
962,24	2232,00
962,67	2239,20
963,11	2233,20
963,54	2232,80
963,97	2228,00
964,40	2233,20
964,83	2233,20
965,26	2234,00
965,69	2232,60
966,13	2236,20
966,56	2228,60
966,99	2240,80
967,42	2234,60
967,85	2233,80
968,28	2237,40
968,71	2243,60
969,14	2238,20
969,57	2234,80
970,01	2232,00
970,44	2231,80
970,87	2235,00
971,30	2235,40
971,73	2235,80
972,16	2230,60
972,59	2234,80
973,02	2232,00
973,45	2235,00
973,88	2236,00
974,31	2232,40
974,74	2232,80
975,17	2239,80
975,61	2232,00
976,04	2233,80
976,47	2236,60
976,90	2235,20
977,33	2230,60
977,76	2237,40
978,19	2236,60
978,62	2231,20
979,05	2234,00
979,48	2234,20
979,91	2237,00
980,34	2233,80
980,77	2232,00
981,20	2236,80
981,63	2236,40
982,06	2234,00
982,49	2230,60
982,92	2233,80
983,35	2232,60
983,78	2233,40
984,21	2232,60
984,64	2229,80
985,07	2234,80
985,50	2230,80
985,93	2231,40
986,36	2233,80
986,79	2237,80
987,22	2233,60
987,65	2235,00
988,08	2230,00
988,51	2235,20
988,94	2230,80
989,37	2234,60
989,80	2233,00
990,23	2236,60
990,66	2234,80
991,09	2235,00
991,51	2236,80
991,94	2240,60
992,37	2233,80
992,80	2232,40
993,23	2230,60
993,66	2232,40
994,09	2233,80
994,52	2237,60
994,95	2236,80
995,38	2237,20
995,81	2238,40
996,24	2234,20
996,67	2233,00
997,09	2230,60
997,52	2234,80
997,95	2233,20
998,38	2231,20
998,81	2236,80
999,24	2231,80
999,67	2240,40
1000,10	2231,20
1000,53	2236,80
1000,95	2238,60
1001,38	2235,00
1001,81	2235,40
1002,24	2231,40
1002,67	2233,00
1003,10	2235,20
1003,53	2234,60
1003,95	2237,20
1004,38	2234,20
1004,81	2233,20
1005,24	2233,80
1005,67	2239,40
1006,10	2233,80
1006,52	2230,00
1006,95	2235,80
1007,38	2232,00
1007,81	2234,40
1008,24	2230,80
1008,67	2230,00
1009,09	2232,40
1009,52	2244,80
1009,95	2234,60
1010,38	2239,20
1010,81	2237,80
1011,23	2236,20
1011,66	2237,00
1012,09	2233,80
1012,52	2233,20
1012,95	2237,40
1013,37	2237,20
1013,80	2238,40
1014,23	2233,00
1014,66	2242,00
1015,08	2233,20
1015,51	2237,40
1015,94	2233,40
1016,37	2234,20
1016,80	2232,80
1017,22	2234,00
1017,65	2235,20
1018,08	2284,20
1018,51	2232,00
1018,93	2231,40
1019,36	2243,00
1019,79	2235,20
1020,21	2235,80
1020,64	2231,60
1021,07	2232,20
1021,50	2238,00
1021,92	2236,80
1022,35	2232,40
1022,78	2232,40
1023,21	2244,20
1023,63	2237,00
1024,06	2237,40
1024,49	2232,60
1024,91	2239,00
1025,34	2237,00
1025,77	2237,80
1026,19	2232,60
1026,62	2231,80
1027,05	2244,20
1027,47	2235,80
1027,90	2236,40
1028,33	2236,80
1028,75	2236,20
1029,18	2231,60
1029,61	2240,60
1030,03	2233,60
1030,46	2234,00
1030,89	2236,00
1031,31	2235,20
1031,74	2229,80
1032,17	2237,80
1032,59	2235,60
1033,02	2234,40
1033,45	2234,40
1033,87	2228,00
1034,30	2230,00
1034,73	2237,60
1035,15	2237,40
1035,58	2236,40
1036,00	2243,80
1036,43	2231,40
1036,86	2231,60
1037,28	2234,60
1037,71	2231,00
1038,13	2233,80
1038,56	2236,00
1038,99	2231,40
1039,41	2240,20
1039,84	2238,80
1040,26	2229,80
1040,69	2232,20
1041,11	2238,60
1041,54	2232,60
1041,97	2236,00
1042,39	2238,20
1042,82	2234,40
1043,24	2236,20
1043,67	2238,20
1044,09	2238,80
1044,52	2235,20
1044,95	2238,00
1045,37	2234,00
1045,80	2230,40
1046,22	2235,80
1046,65	2240,00
1047,07	2229,60
1047,50	2233,60
1047,92	2241,80
1048,35	2234,80
1048,77	2236,20
1049,20	2239,00
1049,62	2237,40
1050,05	2233,00
1050,47	2233,20
1050,90	2230,40
1051,32	2241,00
1051,75	2238,60
1052,17	2240,20
1052,60	2232,80
1053,02	2234,40
1053,45	2230,20
1053,87	2237,00
1054,30	2233,40
1054,72	2234,80
1055,15	2233,20
1055,57	2237,00
1056,00	2235,80
1056,42	2237,60
1056,85	2242,80
1057,27	2234,40
1057,70	2235,80
1058,12	2244,80
1058,54	2236,80
1058,97	2236,80
1059,39	2236,00
1059,82	2237,20
1060,24	2239,60
1060,67	2235,60
1061,09	2234,60
1061,51	2239,00
1061,94	2231,60
1062,36	2235,20
1062,79	2241,20
1063,21	2235,60
1063,64	2235,60
1064,06	2230,80
1064,48	2236,20
1064,91	2238,00
1065,33	2237,60
1065,76	2233,00
1066,18	2229,80
1066,60	2238,60
1067,03	2233,80
1067,45	2237,00
1067,87	2236,80
1068,30	2236,40
1068,72	2239,60
1069,15	2234,00
1069,57	2232,60
1069,99	2231,60
1070,42	2236,80
1070,84	2240,20
1071,26	2239,40
1071,69	2239,00
1072,11	2241,20
1072,53	2234,40
1072,96	2231,40
1073,38	2234,00
1073,80	2236,80
1074,23	2234,60
1074,65	2236,20
1075,07	2231,00
1075,50	2233,20
1075,92	2232,60
1076,34	2232,40
1076,77	2234,80
1077,19	2235,40
1077,61	2234,40
1078,04	2235,60
1078,46	2239,00
1078,88	2236,60
1079,30	2230,80
1079,73	2236,60
1080,15	2235,00
1080,57	2236,20
1081,00	2238,40
1081,42	2235,60
1081,84	2234,20
1082,26	2232,20
1082,69	2231,00
1083,11	2239,60
1083,53	2231,20
1083,95	2234,00
1084,38	2239,80
1084,80	2234,20
1085,22	2234,60
1085,64	2237,60
1086,07	2227,40
1086,49	2233,80
1086,91	2237,20
1087,33	2230,20
1087,76	2236,00
1088,18	2335,00
1088,60	2237,80
1089,02	2231,80
1089,45	2232,00
1089,87	2232,00
1090,29	2236,80
1090,71	2238,80
1091,13	2230,40
1091,56	2236,60
1091,98	2233,80
1092,40	2232,20
1092,82	2236,40
1093,24	2234,80
1093,66	2236,20
1094,09	2234,40
1094,51	2234,80
1094,93	2235,60
1095,35	2233,80
1095,77	2234,80
1096,19	2233,20
1096,62	2236,00
1097,04	2230,00
1097,46	2231,60
1097,88	2236,20
1098,30	2234,80
1098,72	2236,80
1099,15	2237,00
1099,57	2236,00
1099,99	2234,80
1100,41	2236,80
1100,83	2234,20
1101,25	2233,00
1101,67	2238,80
1102,09	2230,60
1102,52	2235,60
1102,94	2231,60
1103,36	2232,80
1103,78	2239,80
1104,20	2232,80
1104,62	2237,80
1105,04	2234,80
1105,46	2233,40
1105,88	2233,40
1106,30	2233,00
1106,73	2237,20
1107,15	2229,60
1107,57	2231,80
1107,99	2236,60
1108,41	2233,80
1108,83	2234,00
1109,25	2238,20
1109,67	2232,40
1110,09	2234,80
1110,51	2231,60
1110,93	2231,20
1111,35	2229,60
1111,77	2231,40
1112,19	2230,20
1112,61	2230,80
1113,03	2232,80
1113,45	2237,20
1113,87	2232,40
1114,29	2232,60
1114,71	2234,60
1115,13	2235,60
1115,55	2233,80
1115,98	2232,60
1116,40	2236,40
1116,82	2235,00
1117,24	2231,40
1117,66	2231,00
1118,08	2184,60
1118,50	2187,00
1118,91	2187,40
1119,33	2187,40
>>>>>End Processed Spectral Data<<<<<
