SpectraSuite Data File
++++++++++++++++++++++++++++++++++++
Date: Wed Nov 27 16:44:06 EET 2013
User: OO Maya
Dark Spectrum Present: No
Reference Spectrum Present: No
Number of Sampled Component Spectra: 1
Spectrometers: MAYP11278
Integration Time (usec): 300000 (MAYP11278)
Spectra Averaged: 5 (MAYP11278)
Boxcar Smoothing: 0 (MAYP11278)
Correct for Electrical Dark: No (MAYP11278)
Strobe/Lamp Enabled: No (MAYP11278)
Correct for Detector Non-linearity: No (MAYP11278)
Correct for Stray Light: No (MAYP11278)
Number of Pixels in Processed Spectrum: 2068
>>>>>Begin Processed Spectral Data<<<<<
188,05	2294,80
188,53	2214,80
189,01	2184,20
189,49	2186,80
189,96	2511,40
190,44	2538,40
190,92	2539,80
191,40	2549,40
191,88	2585,40
192,36	2548,40
192,83	2535,40
193,31	2527,60
193,79	2552,60
194,27	2545,00
194,75	2563,00
195,23	2545,00
195,70	2573,20
196,18	2545,60
196,66	2551,60
197,14	2610,20
197,62	2554,20
198,09	2530,60
198,57	2545,00
199,05	2541,80
199,53	2554,00
200,01	2563,40
200,48	2541,60
200,96	2544,20
201,44	2571,80
201,92	2575,20
202,39	2572,40
202,87	2526,20
203,35	2569,20
203,83	2535,40
204,31	2577,80
204,78	2581,00
205,26	2534,60
205,74	2539,20
206,22	2592,00
206,69	2550,00
207,17	2556,80
207,65	2613,80
208,13	2563,20
208,60	2573,60
209,08	2545,00
209,56	2574,60
210,04	2581,00
210,51	2556,60
210,99	2559,00
211,47	2583,20
211,94	2558,00
212,42	2552,20
212,90	2602,40
213,38	2576,80
213,85	2548,00
214,33	2613,00
214,81	2575,80
215,29	2606,20
215,76	2567,20
216,24	2587,40
216,72	2581,60
217,19	2569,00
217,67	2553,60
218,15	2569,80
218,62	2607,20
219,10	2530,80
219,58	2546,60
220,05	2556,40
220,53	2562,00
221,01	2674,40
221,49	2567,40
221,96	2603,00
222,44	2552,80
222,92	2576,60
223,39	2557,00
223,87	2591,60
224,35	2585,00
224,82	2560,00
225,30	2553,60
225,78	2575,60
226,25	2555,00
226,73	2578,00
227,21	2612,80
227,68	2571,00
228,16	2580,40
228,63	2595,60
229,11	2597,60
229,59	2565,80
230,06	2574,20
230,54	2558,40
231,02	2588,20
231,49	2607,20
231,97	2583,20
232,45	2573,80
232,92	2550,60
233,40	2576,80
233,87	2584,40
234,35	2658,40
234,83	2593,80
235,30	2565,20
235,78	2565,60
236,25	2551,00
236,73	2599,20
237,21	2620,60
237,68	2566,40
238,16	2577,40
238,63	2579,20
239,11	2574,60
239,59	2570,40
240,06	2544,60
240,54	2585,80
241,01	2597,00
241,49	2577,60
241,96	2575,40
242,44	2582,00
242,92	2608,20
243,39	2545,20
243,87	2565,40
244,34	2582,40
244,82	2610,60
245,29	2568,20
245,77	2606,60
246,24	2598,80
246,72	2557,20
247,20	2573,20
247,67	2561,40
248,15	2577,80
248,62	2582,00
249,10	2538,00
249,57	2570,00
250,05	2585,80
250,52	2582,80
251,00	2605,00
251,47	2574,20
251,95	2624,20
252,42	2595,40
252,90	2559,80
253,37	2586,00
253,85	2575,40
254,32	2564,40
254,80	2572,80
255,27	2581,60
255,75	2586,80
256,22	2561,80
256,70	2576,00
257,17	2588,20
257,65	2597,40
258,12	2646,00
258,60	2582,20
259,07	2551,80
259,55	2579,20
260,02	2594,80
260,50	2626,80
260,97	2561,00
261,45	2565,60
261,92	2604,80
262,40	2552,60
262,87	2581,20
263,35	2577,00
263,82	2552,40
264,30	2589,60
264,77	2589,40
265,25	2565,00
265,72	2575,80
266,19	2583,80
266,67	2587,20
267,14	2565,80
267,62	2567,40
268,09	2585,20
268,57	2585,40
269,04	2540,60
269,51	2545,80
269,99	2567,60
270,46	2589,60
270,94	2602,80
271,41	2572,20
271,89	2580,60
272,36	2547,80
272,83	2546,40
273,31	2526,40
273,78	2578,00
274,26	2668,60
274,73	2592,60
275,20	2588,40
275,68	2565,40
276,15	2570,20
276,63	2593,00
277,10	2598,80
277,57	2560,20
278,05	2567,60
278,52	2557,40
279,00	2694,80
279,47	2562,20
279,94	2557,40
280,42	2684,40
280,89	2603,80
281,36	2657,40
281,84	2555,20
282,31	2617,40
282,78	2566,80
283,26	2593,40
283,73	2586,20
284,21	2562,00
284,68	2544,80
285,15	2593,00
285,63	2579,00
286,10	2595,40
286,57	2596,40
287,05	2554,20
287,52	2588,60
287,99	2623,60
288,47	2577,20
288,94	2599,60
289,41	2540,80
289,89	2621,20
290,36	2558,40
290,83	2589,80
291,30	2566,80
291,78	2605,60
292,25	2643,00
292,72	2575,40
293,20	2618,80
293,67	2579,00
294,14	2601,00
294,62	2605,80
295,09	2577,80
295,56	2585,80
296,03	2597,40
296,51	2629,40
296,98	2625,80
297,45	2604,00
297,93	2594,40
298,40	2601,80
298,87	2570,00
299,34	2616,80
299,82	2571,80
300,29	2603,00
300,76	2579,80
301,23	2610,40
301,71	2611,60
302,18	2608,20
302,65	2565,20
303,12	2601,80
303,60	2615,20
304,07	2571,80
304,54	2571,00
305,01	2565,40
305,49	2587,80
305,96	2604,20
306,43	2596,40
306,90	2608,00
307,38	2574,00
307,85	2578,80
308,32	2592,40
308,79	2576,40
309,27	2615,20
309,74	2606,00
310,21	2591,60
310,68	2587,00
311,15	2593,40
311,63	2570,80
312,10	2611,00
312,57	2580,00
313,04	2638,80
313,51	2561,00
313,99	2580,80
314,46	2581,20
314,93	2566,00
315,40	2557,00
315,87	2608,60
316,34	2595,00
316,82	2608,40
317,29	2598,00
317,76	2588,80
318,23	2656,60
318,70	2586,80
319,17	2579,80
319,65	2561,40
320,12	2597,20
320,59	2639,80
321,06	2605,80
321,53	2571,60
322,00	2542,80
322,48	2560,20
322,95	2626,00
323,42	2572,20
323,89	2634,20
324,36	2562,60
324,83	2587,20
325,30	2576,60
325,78	2574,20
326,25	2561,60
326,72	2567,80
327,19	2598,00
327,66	2583,60
328,13	2590,40
328,60	2583,80
329,07	2574,60
329,54	2578,00
330,02	2564,80
330,49	2565,60
330,96	2602,60
331,43	2594,40
331,90	2634,00
332,37	2567,60
332,84	2623,20
333,31	2597,40
333,78	2588,40
334,25	2598,40
334,72	2587,80
335,20	2607,00
335,67	2677,80
336,14	2560,00
336,61	2574,40
337,08	2569,20
337,55	2590,20
338,02	2571,20
338,49	2576,60
338,96	2626,00
339,43	2605,20
339,90	2556,40
340,37	2564,60
340,84	2549,60
341,31	2588,00
341,78	2602,20
342,25	2569,20
342,72	2578,00
343,19	2601,00
343,67	2576,60
344,14	2569,40
344,61	2581,00
345,08	2555,40
345,55	2582,80
346,02	2601,00
346,49	2565,00
346,96	2566,60
347,43	2613,40
347,90	2569,80
348,37	2615,20
348,84	2584,20
349,31	2553,20
349,78	2577,00
350,25	2600,60
350,72	2592,00
351,19	2564,80
351,66	2601,80
352,13	2629,20
352,60	2591,40
353,07	2579,00
353,54	2585,40
354,01	2599,00
354,48	2607,00
354,94	2605,40
355,41	2586,40
355,88	2620,20
356,35	2566,40
356,82	2633,20
357,29	2569,00
357,76	2655,20
358,23	2609,60
358,70	2560,60
359,17	2566,00
359,64	2581,20
360,11	2575,00
360,58	2615,60
361,05	2635,20
361,52	2580,20
361,99	2593,40
362,46	2590,00
362,93	2584,00
363,39	2597,40
363,86	2645,80
364,33	2607,60
364,80	2583,20
365,27	2613,60
365,74	2584,00
366,21	2568,00
366,68	2659,00
367,15	2589,40
367,62	3103,80
368,09	2546,00
368,55	2574,40
369,02	2601,20
369,49	2573,60
369,96	2616,60
370,43	2597,40
370,90	2587,00
371,37	2590,40
371,84	2604,20
372,31	2583,40
372,77	2560,20
373,24	2602,60
373,71	2589,40
374,18	2571,00
374,65	2571,80
375,12	2588,20
375,59	2561,60
376,05	2634,40
376,52	2584,60
376,99	2572,60
377,46	2571,40
377,93	2601,20
378,40	2601,60
378,86	2597,20
379,33	2595,00
379,80	2592,00
380,27	2610,80
380,74	2627,80
381,21	2591,40
381,67	2636,40
382,14	2631,40
382,61	2561,00
383,08	2597,40
383,55	2586,40
384,02	2602,40
384,48	2606,80
384,95	2726,60
385,42	2597,20
385,89	2572,40
386,36	2583,20
386,82	2628,00
387,29	2572,40
387,76	2548,20
388,23	2610,20
388,69	2595,60
389,16	2609,40
389,63	2565,60
390,10	2599,40
390,57	2594,20
391,03	2600,60
391,50	2599,80
391,97	2592,60
392,44	2593,60
392,90	2575,80
393,37	2585,20
393,84	2642,00
394,31	2579,80
394,77	2616,80
395,24	2565,40
395,71	2602,60
396,18	2709,80
396,64	2553,80
397,11	2587,80
397,58	2608,20
398,05	2558,40
398,51	2576,60
398,98	2569,80
399,45	2556,00
399,92	2611,40
400,38	2564,40
400,85	2577,00
401,32	2565,20
401,78	2593,80
402,25	2581,80
402,72	2571,00
403,18	2562,20
403,65	2614,60
404,12	2583,80
404,59	2611,00
405,05	2627,00
405,52	2597,60
405,99	2555,00
406,45	2593,00
406,92	2589,40
407,39	2626,20
407,85	2583,20
408,32	2580,40
408,79	2595,00
409,25	2553,00
409,72	2612,20
410,19	2549,60
410,65	2601,40
411,12	2555,00
411,59	2619,40
412,05	2567,80
412,52	2540,60
412,99	2592,00
413,45	2579,60
413,92	2593,40
414,39	2598,20
414,85	2617,20
415,32	2583,60
415,78	2614,00
416,25	2589,40
416,72	2587,00
417,18	2633,20
417,65	2593,40
418,12	2583,00
418,58	2593,40
419,05	2591,60
419,51	2609,80
419,98	2569,20
420,45	2603,60
420,91	2566,40
421,38	2594,00
421,84	2574,40
422,31	2601,80
422,78	2561,20
423,24	2581,80
423,71	2602,60
424,17	2611,20
424,64	2584,60
425,11	2611,20
425,57	2589,00
426,04	2621,80
426,50	2589,40
426,97	2623,40
427,43	2620,40
427,90	2614,40
428,37	2574,40
428,83	2620,20
429,30	2599,40
429,76	2597,80
430,23	2602,00
430,69	2682,00
431,16	2563,00
431,62	2583,20
432,09	2633,00
432,55	2626,80
433,02	2588,60
433,48	2584,00
433,95	2595,00
434,42	2582,80
434,88	2622,80
435,35	2569,00
435,81	2622,80
436,28	2608,60
436,74	2565,60
437,21	2622,00
437,67	2597,80
438,14	2605,20
438,60	2585,00
439,07	2591,20
439,53	2705,60
440,00	2606,60
440,46	2617,40
440,93	2639,60
441,39	2574,00
441,86	2601,60
442,32	2662,20
442,79	2583,40
443,25	2603,80
443,72	2598,60
444,18	2563,80
444,64	2648,00
445,11	2610,80
445,57	2605,40
446,04	2604,40
446,50	2606,60
446,97	2602,00
447,43	2602,60
447,90	2583,60
448,36	2576,80
448,83	2618,60
449,29	2623,40
449,75	2595,80
450,22	2576,00
450,68	2584,40
451,15	2589,60
451,61	2598,00
452,08	2615,20
452,54	2583,40
453,00	2617,40
453,47	2596,40
453,93	2596,20
454,40	2588,00
454,86	2613,40
455,32	2586,80
455,79	2610,00
456,25	2612,80
456,72	2582,80
457,18	2630,80
457,64	2591,00
458,11	2600,00
458,57	2567,40
459,04	2601,60
459,50	2597,60
459,96	2599,20
460,43	2583,20
460,89	2583,00
461,36	2636,80
461,82	2607,80
462,28	2581,40
462,75	2571,80
463,21	2611,60
463,67	2584,00
464,14	2597,20
464,60	2602,00
465,06	2571,40
465,53	2577,20
465,99	2608,00
466,45	2592,60
466,92	2604,60
467,38	2607,00
467,84	2581,80
468,31	2597,40
468,77	2603,80
469,23	2591,60
469,70	2572,60
470,16	2600,60
470,62	2588,80
471,09	2576,40
471,55	2589,40
472,01	2565,80
472,48	2585,80
472,94	2589,00
473,40	2629,20
473,87	2582,80
474,33	2570,80
474,79	2580,80
475,25	2567,00
475,72	2596,80
476,18	2584,20
476,64	2599,60
477,11	2587,40
477,57	2586,20
478,03	2627,40
478,49	2597,80
478,96	2606,60
479,42	2574,40
479,88	2626,60
480,35	2595,00
480,81	2597,80
481,27	2580,80
481,73	2581,20
482,20	2580,80
482,66	2560,80
483,12	2589,20
483,58	2550,80
484,05	2588,20
484,51	2626,60
484,97	2584,60
485,43	2592,00
485,89	2545,80
486,36	2578,00
486,82	2553,00
487,28	2582,40
487,74	2559,20
488,21	2563,80
488,67	2583,40
489,13	2597,20
489,59	2589,40
490,05	2615,20
490,52	2565,60
490,98	2578,40
491,44	2558,60
491,90	2575,00
492,36	2556,20
492,83	2622,80
493,29	2610,40
493,75	2596,60
494,21	2567,80
494,67	2576,40
495,14	2576,00
495,60	2572,80
496,06	2587,40
496,52	2579,20
496,98	2591,00
497,44	2643,60
497,91	2610,40
498,37	2576,60
498,83	2603,20
499,29	2587,20
499,75	2659,20
500,21	2591,40
500,67	2581,80
501,14	2595,40
501,60	2585,40
502,06	2613,00
502,52	2602,80
502,98	2600,20
503,44	2591,80
503,90	2608,00
504,37	2580,00
504,83	2604,20
505,29	2605,00
505,75	2581,80
506,21	2600,80
506,67	2622,00
507,13	2596,00
507,59	2613,20
508,05	2608,80
508,51	2591,40
508,98	2579,60
509,44	2576,00
509,90	2609,20
510,36	2601,80
510,82	2595,00
511,28	2630,80
511,74	2637,00
512,20	2590,40
512,66	2578,20
513,12	2588,00
513,58	2624,20
514,04	2559,00
514,51	2624,80
514,97	2661,20
515,43	2569,20
515,89	2615,00
516,35	2635,20
516,81	2627,20
517,27	2686,20
517,73	2620,60
518,19	2606,60
518,65	2715,80
519,11	2604,00
519,57	2592,40
520,03	2586,00
520,49	2588,60
520,95	2618,00
521,41	2618,80
521,87	2630,40
522,33	2606,00
522,79	2589,60
523,25	2654,40
523,71	2630,20
524,17	2603,60
524,63	2646,00
525,09	2632,80
525,55	2627,40
526,01	2651,80
526,47	2634,00
526,93	2624,80
527,39	2596,40
527,85	2605,00
528,31	2625,40
528,77	2622,60
529,23	2600,20
529,69	2586,40
530,15	2636,60
530,61	2632,20
531,07	2580,60
531,53	2638,60
531,99	2615,60
532,45	2606,40
532,91	2627,00
533,37	2636,40
533,83	2608,80
534,29	2593,40
534,75	2610,20
535,21	2594,40
535,67	2625,80
536,12	2605,00
536,58	2620,80
537,04	2590,00
537,50	2627,60
537,96	2607,80
538,42	2611,80
538,88	2666,00
539,34	2620,00
539,80	2755,60
540,26	2568,40
540,72	2660,80
541,18	2623,00
541,63	2591,60
542,09	2626,00
542,55	2623,80
543,01	2611,20
543,47	2684,20
543,93	2582,80
544,39	2670,80
544,85	2625,20
545,31	2610,00
545,76	2612,40
546,22	2653,40
546,68	2635,00
547,14	2633,80
547,60	2640,80
548,06	2622,40
548,52	2622,80
548,98	2612,60
549,43	2610,60
549,89	2673,80
550,35	2621,40
550,81	2603,80
551,27	2641,80
551,73	2621,00
552,19	2685,00
552,64	2627,20
553,10	2606,80
553,56	2646,80
554,02	2618,20
554,48	2616,00
554,93	2626,80
555,39	2643,80
555,85	2680,60
556,31	2637,20
556,77	2665,80
557,23	2608,20
557,68	2641,60
558,14	2699,80
558,60	2637,80
559,06	2641,80
559,52	2624,80
559,97	2630,60
560,43	2620,60
560,89	2650,00
561,35	2650,00
561,81	2651,40
562,26	2643,60
562,72	2644,00
563,18	2663,40
563,64	2695,40
564,09	2641,40
564,55	2667,40
565,01	2660,60
565,47	2669,00
565,92	2686,20
566,38	2715,40
566,84	2685,60
567,30	2673,40
567,75	2695,40
568,21	2726,20
568,67	2690,20
569,13	2711,00
569,58	2728,60
570,04	2713,80
570,50	2717,40
570,96	2756,80
571,41	2744,60
571,87	2733,60
572,33	2770,80
572,78	2766,40
573,24	2740,40
573,70	2751,00
574,16	2797,20
574,61	2822,20
575,07	2833,40
575,53	2789,00
575,98	2821,60
576,44	2794,20
576,90	2883,80
577,36	2844,40
577,81	2866,00
578,27	2866,20
578,73	2935,20
579,18	2925,60
579,64	2918,60
580,10	2947,40
580,55	2969,60
581,01	2976,60
581,47	3004,00
581,92	3033,20
582,38	3049,40
582,84	3034,20
583,29	3098,60
583,75	3118,60
584,21	3141,60
584,66	3189,40
585,12	3191,80
585,57	3308,20
586,03	3270,60
586,49	3297,20
586,94	3333,40
587,40	3381,80
587,86	3446,60
588,31	3454,20
588,77	3530,00
589,22	3540,00
589,68	3596,80
590,14	3674,80
590,59	3735,80
591,05	3749,40
591,51	3808,60
591,96	3916,60
592,42	3953,40
592,87	4038,80
593,33	4114,40
593,78	4236,40
594,24	4290,40
594,70	4380,00
595,15	4499,20
595,61	4557,20
596,06	4629,00
596,52	4792,80
596,98	4916,80
597,43	5040,20
597,89	5110,20
598,34	5190,20
598,80	5392,80
599,25	5574,40
599,71	5670,60
600,16	5870,00
600,62	6056,20
601,08	6201,20
601,53	6428,40
601,99	6520,00
602,44	6853,20
602,90	6983,00
603,35	7231,20
603,81	7455,80
604,26	7670,60
604,72	7936,20
605,17	8204,60
605,63	8512,20
606,08	8810,40
606,54	9059,20
606,99	9494,00
607,45	9822,00
607,90	10108,20
608,36	10549,00
608,81	10916,20
609,27	11442,80
609,72	11755,60
610,18	12237,20
610,63	12722,80
611,09	13258,00
611,54	13772,20
612,00	14431,80
612,45	14977,60
612,91	15628,80
613,36	16329,60
613,82	16817,40
614,27	17664,00
614,73	18352,60
615,18	19134,60
615,64	19996,00
616,09	20808,80
616,54	21703,60
617,00	22590,60
617,45	23617,20
617,91	24657,60
618,36	25715,80
618,82	26769,60
619,27	27960,80
619,72	29221,20
620,18	30535,00
620,63	31929,20
621,09	33392,40
621,54	34795,20
622,00	36330,60
622,45	37902,60
622,90	39590,40
623,36	41163,00
623,81	43042,80
624,27	44842,00
624,72	46638,20
625,17	48691,80
625,63	50744,60
626,08	52919,00
626,54	55165,20
626,99	57441,60
627,44	59821,00
627,90	62472,60
628,35	64000,00
628,81	64000,00
629,26	64000,00
629,71	64000,00
630,17	64000,00
630,62	64000,00
631,07	64000,00
631,53	64000,00
631,98	64000,00
632,43	64000,00
632,89	64000,00
633,34	64000,00
633,79	64000,00
634,25	64000,00
634,70	64000,00
635,15	64000,00
635,61	64000,00
636,06	64000,00
636,51	64000,00
636,97	64000,00
637,42	64000,00
637,87	64000,00
638,33	64000,00
638,78	64000,00
639,23	64000,00
639,69	64000,00
640,14	64000,00
640,59	64000,00
641,05	64000,00
641,50	64000,00
641,95	64000,00
642,40	64000,00
642,86	64000,00
643,31	64000,00
643,76	64000,00
644,22	64000,00
644,67	64000,00
645,12	64000,00
645,57	64000,00
646,03	64000,00
646,48	64000,00
646,93	64000,00
647,38	64000,00
647,84	64000,00
648,29	64000,00
648,74	64000,00
649,19	64000,00
649,65	64000,00
650,10	64000,00
650,55	64000,00
651,00	64000,00
651,46	64000,00
651,91	64000,00
652,36	64000,00
652,81	64000,00
653,27	64000,00
653,72	64000,00
654,17	64000,00
654,62	64000,00
655,07	64000,00
655,53	64000,00
655,98	64000,00
656,43	64000,00
656,88	64000,00
657,33	64000,00
657,79	64000,00
658,24	64000,00
658,69	64000,00
659,14	64000,00
659,59	64000,00
660,05	64000,00
660,50	64000,00
660,95	64000,00
661,40	64000,00
661,85	64000,00
662,30	64000,00
662,76	64000,00
663,21	64000,00
663,66	64000,00
664,11	64000,00
664,56	64000,00
665,01	64000,00
665,47	64000,00
665,92	64000,00
666,37	64000,00
666,82	64000,00
667,27	64000,00
667,72	64000,00
668,17	64000,00
668,62	64000,00
669,08	64000,00
669,53	64000,00
669,98	64000,00
670,43	64000,00
670,88	64000,00
671,33	64000,00
671,78	64000,00
672,23	64000,00
672,69	64000,00
673,14	64000,00
673,59	62271,60
674,04	58078,20
674,49	54076,80
674,94	50582,60
675,39	47176,00
675,84	44097,20
676,29	41202,80
676,74	38486,00
677,19	35941,40
677,64	33524,00
678,10	31489,80
678,55	29397,00
679,00	27621,20
679,45	25944,00
679,90	24361,00
680,35	22930,40
680,80	21507,40
681,25	20201,20
681,70	19013,20
682,15	18045,60
682,60	17050,00
683,05	16192,60
683,50	15393,20
683,95	14556,00
684,40	13796,80
684,85	13040,80
685,30	12447,20
685,75	11807,40
686,20	11273,40
686,65	10744,60
687,10	10340,80
687,55	9865,80
688,00	9412,40
688,45	8989,80
688,90	8684,80
689,35	8249,60
689,80	7916,40
690,25	7610,60
690,70	7356,60
691,15	7039,80
691,60	6852,00
692,05	6578,40
692,50	6412,00
692,95	6215,60
693,40	6107,60
693,85	5928,60
694,30	5713,40
694,75	5566,60
695,20	5572,60
695,65	5270,60
696,10	5155,80
696,55	5052,60
697,00	4874,20
697,45	4792,40
697,90	4701,40
698,35	4559,60
698,80	4491,60
699,24	4436,40
699,69	4305,20
700,14	4253,40
700,59	4181,40
701,04	4137,40
701,49	4147,60
701,94	3958,80
702,39	3964,20
702,84	3846,20
703,29	3811,40
703,74	3776,20
704,19	3722,20
704,63	3677,60
705,08	3669,60
705,53	3599,80
705,98	3583,80
706,43	3495,00
706,88	3507,00
707,33	3438,20
707,78	3430,00
708,22	3410,80
708,67	3398,00
709,12	3344,80
709,57	3308,60
710,02	3291,60
710,47	3256,00
710,92	3240,60
711,37	3250,40
711,81	3227,80
712,26	3213,00
712,71	3170,80
713,16	3230,20
713,61	3169,80
714,06	3152,60
714,50	3181,60
714,95	3172,20
715,40	3121,80
715,85	3120,00
716,30	3096,20
716,75	3089,00
717,19	3059,40
717,64	3029,60
718,09	3087,20
718,54	3120,00
718,99	3026,20
719,43	3025,60
719,88	3050,60
720,33	3014,00
720,78	3020,60
721,23	3017,80
721,67	2994,60
722,12	3016,00
722,57	2981,40
723,02	2975,80
723,47	2954,00
723,91	2982,40
724,36	2938,60
724,81	2993,40
725,26	2921,80
725,70	2950,00
726,15	2948,20
726,60	2946,00
727,05	2985,00
727,49	2919,80
727,94	2960,40
728,39	2946,00
728,84	2918,40
729,28	2947,80
729,73	2906,20
730,18	2925,80
730,63	2887,60
731,07	2888,00
731,52	2898,80
731,97	2880,20
732,41	2879,00
732,86	2845,00
733,31	2871,60
733,76	2859,00
734,20	2812,00
734,65	2852,80
735,10	2842,40
735,54	2833,20
735,99	2889,40
736,44	2793,20
736,89	2813,80
737,33	2812,80
737,78	2817,00
738,23	2791,00
738,67	2768,80
739,12	2779,20
739,57	2746,60
740,01	2801,20
740,46	2773,00
740,91	2741,40
741,35	2762,20
741,80	2758,00
742,25	2737,40
742,69	2746,20
743,14	2713,20
743,59	2708,00
744,03	2733,20
744,48	2760,60
744,92	2731,40
745,37	2726,00
745,82	2727,60
746,26	2755,20
746,71	2653,80
747,16	2677,60
747,60	2658,80
748,05	2710,00
748,49	2689,00
748,94	2682,20
749,39	2698,40
749,83	2777,60
750,28	2686,80
750,73	2672,00
751,17	2640,20
751,62	2671,20
752,06	2670,00
752,51	2660,00
752,95	2733,00
753,40	2648,60
753,85	2665,20
754,29	2631,80
754,74	2651,60
755,18	2637,00
755,63	2653,60
756,07	2658,60
756,52	2686,80
756,97	2660,00
757,41	2690,80
757,86	2662,20
758,30	2644,40
758,75	2625,60
759,19	2654,20
759,64	2630,00
760,08	2637,20
760,53	2647,60
760,98	2631,80
761,42	2653,20
761,87	2681,00
762,31	2622,40
762,76	2603,60
763,20	2625,40
763,65	2656,00
764,09	2620,40
764,54	2608,80
764,98	2617,20
765,43	2642,20
765,87	2597,80
766,32	2599,40
766,76	2607,80
767,21	2631,80
767,65	2630,20
768,10	2621,80
768,54	2633,40
768,99	2619,80
769,43	2669,80
769,88	2594,80
770,32	2612,40
770,77	2581,20
771,21	2582,80
771,65	2621,20
772,10	2611,60
772,54	2618,60
772,99	2583,60
773,43	2598,80
773,88	2607,60
774,32	2574,40
774,77	2609,80
775,21	2594,60
775,65	2605,20
776,10	2597,40
776,54	2572,20
776,99	2589,60
777,43	2599,80
777,88	2617,80
778,32	2616,40
778,76	2588,40
779,21	2608,40
779,65	2685,60
780,10	2633,20
780,54	2595,00
780,99	2624,60
781,43	2607,40
781,87	2575,80
782,32	2596,40
782,76	2576,40
783,20	2589,80
783,65	2610,60
784,09	2611,20
784,54	2605,60
784,98	2580,60
785,42	2578,60
785,87	2579,00
786,31	2604,00
786,75	2618,00
787,20	2622,40
787,64	2563,60
788,09	2572,00
788,53	2587,20
788,97	2568,00
789,42	2572,40
789,86	2574,20
790,30	2590,60
790,75	2561,60
791,19	2568,80
791,63	2614,00
792,08	2574,80
792,52	2580,40
792,96	2569,60
793,41	2703,80
793,85	2605,60
794,29	2588,80
794,74	2592,20
795,18	2583,60
795,62	2553,80
796,06	2592,00
796,51	2578,80
796,95	2589,80
797,39	2574,20
797,84	2559,00
798,28	2589,00
798,72	2603,80
799,16	2586,20
799,61	2561,00
800,05	2618,40
800,49	2590,80
800,94	2575,80
801,38	2583,80
801,82	2578,00
802,26	2560,80
802,71	2607,60
803,15	2632,20
803,59	2604,80
804,03	2584,00
804,48	2575,00
804,92	2567,40
805,36	2625,20
805,80	2633,00
806,25	2621,20
806,69	2608,00
807,13	2642,80
807,57	2575,80
808,01	2578,40
808,46	2555,20
808,90	2594,80
809,34	2590,00
809,78	2570,60
810,23	2551,80
810,67	2591,20
811,11	2615,80
811,55	2674,80
811,99	2579,20
812,44	2558,40
812,88	2596,20
813,32	2625,40
813,76	2596,40
814,20	2581,20
814,64	2602,60
815,09	2591,80
815,53	2580,80
815,97	2567,40
816,41	2556,20
816,85	2569,60
817,29	2593,20
817,74	2577,80
818,18	2602,40
818,62	2566,20
819,06	2605,40
819,50	2600,40
819,94	2565,00
820,39	2586,00
820,83	2571,60
821,27	2576,40
821,71	2545,40
822,15	2610,40
822,59	2563,40
823,03	2574,80
823,47	2590,20
823,92	2553,20
824,36	2575,60
824,80	2573,80
825,24	2584,60
825,68	2585,60
826,12	2560,00
826,56	2562,80
827,00	2536,00
827,44	2572,00
827,88	2585,60
828,33	2618,00
828,77	2565,80
829,21	2590,80
829,65	2593,80
830,09	2557,80
830,53	2613,40
830,97	2575,60
831,41	2644,40
831,85	2603,60
832,29	2583,00
832,73	2546,20
833,17	2568,40
833,61	2567,80
834,05	2616,60
834,49	2592,20
834,93	2568,40
835,37	2557,60
835,82	2597,00
836,26	2566,60
836,70	2576,60
837,14	2576,00
837,58	2602,60
838,02	2559,00
838,46	2557,80
838,90	2576,60
839,34	2565,80
839,78	2611,40
840,22	2640,40
840,66	2572,60
841,10	2610,00
841,54	2538,40
841,98	2557,00
842,42	2541,60
842,86	2561,00
843,30	2580,60
843,74	2572,80
844,18	2591,00
844,62	2572,40
845,06	2565,40
845,50	2600,20
845,94	2569,00
846,37	2592,40
846,81	2556,60
847,25	2551,00
847,69	2583,60
848,13	2553,00
848,57	2561,60
849,01	2555,20
849,45	2585,60
849,89	2607,00
850,33	2591,00
850,77	2560,00
851,21	2596,80
851,65	2560,00
852,09	2577,00
852,53	2591,80
852,97	2557,80
853,40	2565,60
853,84	2592,40
854,28	2543,60
854,72	2596,60
855,16	2531,00
855,60	2542,00
856,04	2602,00
856,48	2610,20
856,92	2576,00
857,36	2579,40
857,79	2576,40
858,23	2546,60
858,67	2601,00
859,11	2528,20
859,55	2547,80
859,99	2566,60
860,43	2546,60
860,87	2571,60
861,30	2586,80
861,74	2559,80
862,18	2559,60
862,62	2572,20
863,06	2542,40
863,50	2555,60
863,94	2581,80
864,37	2542,40
864,81	2568,60
865,25	2556,00
865,69	2534,40
866,13	2557,40
866,57	2526,80
867,00	2579,60
867,44	2540,20
867,88	2581,00
868,32	2556,60
868,76	2558,40
869,19	2575,00
869,63	2556,20
870,07	2595,20
870,51	2635,20
870,95	2539,60
871,38	2561,20
871,82	2564,20
872,26	2555,80
872,70	2563,40
873,14	2568,00
873,57	2561,60
874,01	2592,20
874,45	2581,20
874,89	2559,20
875,32	2546,00
875,76	2586,00
876,20	2527,80
876,64	2572,20
877,07	2561,80
877,51	2566,20
877,95	2559,60
878,39	2550,80
878,82	2568,00
879,26	2561,20
879,70	2606,00
880,14	2540,20
880,57	2535,60
881,01	2545,60
881,45	2567,00
881,89	2589,00
882,32	2550,00
882,76	2552,20
883,20	2556,20
883,63	2560,40
884,07	2547,00
884,51	2570,80
884,94	2552,40
885,38	2572,80
885,82	2584,60
886,26	2551,00
886,69	2546,00
887,13	2602,40
887,57	2540,60
888,00	2549,80
888,44	2558,20
888,88	2553,00
889,31	2659,40
889,75	2536,40
890,19	2576,00
890,62	2553,00
891,06	2580,60
891,50	2567,40
891,93	2531,20
892,37	2544,40
892,81	2553,00
893,24	2543,00
893,68	2539,00
894,11	2563,20
894,55	2552,00
894,99	2584,60
895,42	2552,00
895,86	2532,20
896,30	2560,60
896,73	2576,20
897,17	2538,60
897,60	2554,80
898,04	2546,40
898,48	2567,80
898,91	2584,00
899,35	2536,00
899,78	2547,00
900,22	2542,60
900,66	2593,00
901,09	2579,00
901,53	2560,80
901,96	2617,40
902,40	2614,20
902,84	2545,80
903,27	2558,60
903,71	2606,80
904,14	2547,60
904,58	2578,80
905,01	2550,00
905,45	2550,00
905,88	2538,60
906,32	2586,80
906,76	2576,20
907,19	2581,00
907,63	2577,60
908,06	2562,00
908,50	2587,80
908,93	2597,40
909,37	2547,80
909,80	2524,60
910,24	2569,60
910,67	2573,40
911,11	2562,40
911,54	2547,60
911,98	2532,80
912,41	2554,60
912,85	2556,00
913,28	2577,80
913,72	2569,60
914,15	2558,60
914,59	2532,40
915,02	2545,80
915,46	2544,40
915,89	2538,40
916,33	2582,00
916,76	2552,00
917,20	2588,40
917,63	2549,40
918,07	2581,00
918,50	2549,80
918,94	2554,20
919,37	2566,00
919,81	2573,40
920,24	2586,20
920,67	2562,40
921,11	2604,80
921,54	2573,60
921,98	2554,80
922,41	2538,60
922,85	2529,60
923,28	2563,00
923,72	2600,80
924,15	2572,40
924,58	2538,00
925,02	2576,40
925,45	2545,20
925,89	2585,00
926,32	2615,40
926,75	2547,60
927,19	2580,00
927,62	2524,00
928,06	2611,40
928,49	2559,40
928,92	2529,20
929,36	2584,80
929,79	2556,00
930,23	2574,40
930,66	2581,80
931,09	2540,60
931,53	2571,60
931,96	2521,80
932,39	2601,80
932,83	2583,80
933,26	2640,00
933,70	2551,20
934,13	2585,60
934,56	2584,00
935,00	2577,60
935,43	2563,20
935,86	2526,80
936,30	2565,00
936,73	2530,40
937,16	2573,00
937,60	2531,40
938,03	2575,00
938,46	2534,40
938,90	2559,60
939,33	2578,20
939,76	2532,40
940,19	2570,20
940,63	2583,60
941,06	2617,60
941,49	2544,40
941,93	2582,40
942,36	2549,80
942,79	2552,00
943,23	2574,80
943,66	2532,40
944,09	2516,80
944,52	2578,00
944,96	2563,80
945,39	2578,60
945,82	2568,80
946,26	2559,40
946,69	2558,60
947,12	2585,00
947,55	2550,00
947,99	2554,40
948,42	2571,00
948,85	2531,20
949,28	2533,40
949,72	2517,40
950,15	2633,00
950,58	2582,00
951,01	2544,00
951,45	2543,40
951,88	2569,40
952,31	2523,80
952,74	2576,40
953,17	2548,80
953,61	2608,20
954,04	2524,40
954,47	2537,20
954,90	2552,80
955,33	2546,20
955,77	2539,00
956,20	2562,80
956,63	2536,80
957,06	2571,60
957,49	2639,20
957,93	2523,60
958,36	2563,00
958,79	2563,60
959,22	2542,20
959,65	2536,00
960,08	2548,80
960,52	2504,60
960,95	2554,60
961,38	2582,60
961,81	2565,20
962,24	2575,40
962,67	2577,80
963,11	2538,80
963,54	2562,20
963,97	2541,00
964,40	2552,80
964,83	2553,00
965,26	2532,80
965,69	2573,00
966,13	2554,20
966,56	2556,40
966,99	2580,20
967,42	2547,80
967,85	2540,20
968,28	2589,00
968,71	2673,80
969,14	2568,40
969,57	2552,60
970,01	2562,80
970,44	2538,40
970,87	2544,40
971,30	2558,60
971,73	2542,80
972,16	2557,20
972,59	2531,00
973,02	2542,80
973,45	2548,80
973,88	2578,20
974,31	2544,60
974,74	2578,40
975,17	2565,40
975,61	2542,80
976,04	2538,80
976,47	2539,00
976,90	2558,40
977,33	2543,20
977,76	2578,40
978,19	2554,80
978,62	2550,40
979,05	2549,00
979,48	2548,40
979,91	2569,80
980,34	2557,00
980,77	2543,40
981,20	2555,60
981,63	2583,00
982,06	2559,40
982,49	2562,60
982,92	2544,60
983,35	2547,40
983,78	2542,80
984,21	2581,40
984,64	2575,20
985,07	2534,00
985,50	2509,80
985,93	2544,40
986,36	2564,20
986,79	2541,60
987,22	2543,00
987,65	2571,00
988,08	2557,20
988,51	2549,40
988,94	2550,40
989,37	2564,00
989,80	2555,20
990,23	2545,80
990,66	2547,20
991,09	2549,60
991,51	2559,00
991,94	2606,20
992,37	2537,60
992,80	2530,40
993,23	2543,20
993,66	2533,00
994,09	2547,80
994,52	2573,00
994,95	2579,80
995,38	2557,60
995,81	2556,00
996,24	2522,40
996,67	2527,80
997,09	2517,60
997,52	2586,80
997,95	2575,40
998,38	2540,60
998,81	2557,40
999,24	2525,00
999,67	2592,60
1000,10	2558,00
1000,53	2558,20
1000,95	2595,60
1001,38	2532,40
1001,81	2549,60
1002,24	2571,00
1002,67	2547,60
1003,10	2557,40
1003,53	2549,40
1003,95	2567,00
1004,38	2528,20
1004,81	2562,20
1005,24	2554,60
1005,67	2587,80
1006,10	2551,40
1006,52	2519,80
1006,95	2563,80
1007,38	2549,80
1007,81	2541,60
1008,24	2516,80
1008,67	2555,40
1009,09	2538,00
1009,52	2645,20
1009,95	2585,60
1010,38	2567,40
1010,81	2568,60
1011,23	2559,40
1011,66	2588,00
1012,09	2547,00
1012,52	2568,80
1012,95	2557,60
1013,37	2564,60
1013,80	2569,40
1014,23	2521,80
1014,66	2585,80
1015,08	2519,00
1015,51	2572,00
1015,94	2534,20
1016,37	2556,20
1016,80	2532,00
1017,22	2568,20
1017,65	2548,60
1018,08	3042,40
1018,51	2535,20
1018,93	2521,80
1019,36	2617,20
1019,79	2582,40
1020,21	2571,00
1020,64	2552,60
1021,07	2549,00
1021,50	2563,20
1021,92	2565,60
1022,35	2561,80
1022,78	2546,40
1023,21	2658,40
1023,63	2578,20
1024,06	2585,60
1024,49	2568,20
1024,91	2563,20
1025,34	2564,80
1025,77	2581,00
1026,19	2532,40
1026,62	2525,40
1027,05	2622,20
1027,47	2575,80
1027,90	2557,60
1028,33	2554,80
1028,75	2557,40
1029,18	2534,00
1029,61	2628,00
1030,03	2555,80
1030,46	2553,20
1030,89	2564,20
1031,31	2590,00
1031,74	2525,20
1032,17	2554,80
1032,59	2570,00
1033,02	2547,60
1033,45	2579,40
1033,87	2534,40
1034,30	2532,20
1034,73	2560,00
1035,15	2578,20
1035,58	2542,40
1036,00	2596,60
1036,43	2533,80
1036,86	2533,60
1037,28	2554,60
1037,71	2524,60
1038,13	2576,60
1038,56	2575,20
1038,99	2573,60
1039,41	2579,60
1039,84	2597,00
1040,26	2547,60
1040,69	2558,80
1041,11	2563,20
1041,54	2556,80
1041,97	2591,60
1042,39	2586,40
1042,82	2584,60
1043,24	2577,00
1043,67	2556,40
1044,09	2583,40
1044,52	2531,00
1044,95	2555,20
1045,37	2546,40
1045,80	2530,00
1046,22	2562,00
1046,65	2572,80
1047,07	2537,60
1047,50	2569,80
1047,92	2583,60
1048,35	2527,40
1048,77	2584,00
1049,20	2573,60
1049,62	2577,40
1050,05	2544,40
1050,47	2551,40
1050,90	2577,80
1051,32	2578,20
1051,75	2593,60
1052,17	2585,60
1052,60	2554,60
1053,02	2577,40
1053,45	2513,20
1053,87	2557,40
1054,30	2518,40
1054,72	2553,60
1055,15	2544,60
1055,57	2564,20
1056,00	2562,60
1056,42	2610,20
1056,85	2587,00
1057,27	2583,60
1057,70	2550,00
1058,12	2670,80
1058,54	2535,20
1058,97	2570,20
1059,39	2571,80
1059,82	2559,00
1060,24	2545,80
1060,67	2540,80
1061,09	2572,60
1061,51	2560,80
1061,94	2546,40
1062,36	2578,00
1062,79	2599,80
1063,21	2562,00
1063,64	2560,20
1064,06	2541,00
1064,48	2586,20
1064,91	2591,40
1065,33	2543,80
1065,76	2533,80
1066,18	2520,00
1066,60	2581,40
1067,03	2560,60
1067,45	2545,40
1067,87	2567,60
1068,30	2543,60
1068,72	2609,00
1069,15	2554,40
1069,57	2549,60
1069,99	2523,40
1070,42	2578,20
1070,84	2585,20
1071,26	2572,80
1071,69	2543,40
1072,11	2572,20
1072,53	2544,80
1072,96	2526,00
1073,38	2538,60
1073,80	2573,20
1074,23	2547,60
1074,65	2528,40
1075,07	2552,60
1075,50	2555,00
1075,92	2554,60
1076,34	2546,60
1076,77	2531,20
1077,19	2549,20
1077,61	2574,20
1078,04	2543,60
1078,46	2566,80
1078,88	2601,60
1079,30	2516,60
1079,73	2555,60
1080,15	2540,00
1080,57	2554,20
1081,00	2557,60
1081,42	2560,20
1081,84	2542,60
1082,26	2560,00
1082,69	2563,00
1083,11	2558,80
1083,53	2557,80
1083,95	2553,20
1084,38	2581,00
1084,80	2555,80
1085,22	2542,40
1085,64	2578,80
1086,07	2530,60
1086,49	2534,00
1086,91	2569,60
1087,33	2527,60
1087,76	2572,00
1088,18	3571,00
1088,60	2553,40
1089,02	2538,20
1089,45	2543,00
1089,87	2544,40
1090,29	2581,80
1090,71	2546,00
1091,13	2531,80
1091,56	2556,20
1091,98	2537,40
1092,40	2533,00
1092,82	2554,20
1093,24	2542,00
1093,66	2556,20
1094,09	2550,60
1094,51	2550,00
1094,93	2553,60
1095,35	2553,60
1095,77	2539,80
1096,19	2545,60
1096,62	2556,80
1097,04	2528,60
1097,46	2550,20
1097,88	2536,20
1098,30	2570,20
1098,72	2561,00
1099,15	2571,60
1099,57	2540,80
1099,99	2546,00
1100,41	2531,40
1100,83	2547,40
1101,25	2544,80
1101,67	2552,40
1102,09	2531,20
1102,52	2534,20
1102,94	2542,60
1103,36	2548,40
1103,78	2556,60
1104,20	2538,20
1104,62	2581,00
1105,04	2498,00
1105,46	2549,00
1105,88	2544,00
1106,30	2531,80
1106,73	2536,20
1107,15	2510,20
1107,57	2513,40
1107,99	2577,40
1108,41	2514,20
1108,83	2554,20
1109,25	2558,20
1109,67	2543,40
1110,09	2510,00
1110,51	2534,40
1110,93	2509,20
1111,35	2536,00
1111,77	2508,00
1112,19	2522,40
1112,61	2502,20
1113,03	2522,80
1113,45	2516,40
1113,87	2517,80
1114,29	2533,60
1114,71	2545,40
1115,13	2526,20
1115,55	2526,80
1115,98	2523,80
1116,40	2549,40
1116,82	2532,40
1117,24	2545,00
1117,66	2511,00
1118,08	2178,20
1118,50	2184,60
1118,91	2187,60
1119,33	2186,40
>>>>>End Processed Spectral Data<<<<<
